SpectraSuite Data File
++++++++++++++++++++++++++++++++++++
Date: Wed Jan 25 17:10:56 EET 2017
User: TheoProf
Spectrometer Serial Number: USB4C02475
Spectrometer Channel: 0
Integration Time (usec): 64136
Spectra Averaged: 1
Boxcar Smoothing: 0
Correct for Electrical Dark: No
Strobe/Lamp Enabled: No
Correct for Detector Non-linearity: No
Correct for Stray Light: No
Number of Pixels in Spectrum: 3648
>>>>>Begin Spectral Data<<<<<
344.91	1247.213
345.13	1247.213
345.35	1247.213
345.57	1247.213
345.79	1243.117
346.00	1521.641
346.22	1456.106
346.44	1423.338
346.66	1482.729
346.87	1292.268
347.09	1392.619
347.31	1331.180
347.53	1433.578
347.74	1411.050
347.96	1390.571
348.18	1445.866
348.40	1298.412
348.61	1460.202
348.83	1488.873
349.05	1378.283
349.27	1406.955
349.48	1421.290
349.70	1503.209
349.92	1394.667
350.14	1314.796
350.35	1411.050
350.57	1449.962
350.79	1425.386
351.01	1480.681
351.22	1429.482
351.44	1353.707
351.66	1351.659
351.87	1474.538
352.09	1462.250
352.31	1490.921
352.53	1415.146
352.74	1470.442
352.96	1394.667
353.18	1437.674
353.40	1452.010
353.61	1413.098
353.83	1499.113
354.05	1443.818
354.26	1363.947
354.48	1402.859
354.70	1392.619
354.92	1472.490
355.13	1419.242
355.35	1435.626
355.57	1413.098
355.78	1411.050
356.00	1421.290
356.22	1269.741
356.44	1460.202
356.65	1439.722
356.87	1427.434
357.09	1429.482
357.30	1355.755
357.52	1527.785
357.74	1445.866
357.95	1454.058
358.17	1384.427
358.39	1413.098
358.60	1368.043
358.82	1406.955
359.04	1443.818
359.26	1400.811
359.47	1396.715
359.69	1413.098
359.91	1443.818
360.12	1507.305
360.34	1406.955
360.56	1421.290
360.77	1464.298
360.99	1415.146
361.21	1363.947
361.42	1425.386
361.64	1452.010
361.86	1505.257
362.07	1490.921
362.29	1409.002
362.51	1357.803
362.72	1505.257
362.94	1341.420
363.16	1390.571
363.37	1435.626
363.59	1431.530
363.81	1404.907
364.02	1429.482
364.24	1478.633
364.46	1384.427
364.67	1478.633
364.89	1484.777
365.11	1404.907
365.32	1445.866
365.54	1482.729
365.76	1394.667
365.97	1443.818
366.19	1460.202
366.41	1404.907
366.62	1433.578
366.84	1411.050
367.05	1423.338
367.27	1382.379
367.49	1437.674
367.70	1404.907
367.92	1409.002
368.14	1437.674
368.35	1464.298
368.57	1343.468
368.79	1402.859
369.00	1380.331
369.22	1431.530
369.43	1398.763
369.65	1462.250
369.87	1392.619
370.08	1452.010
370.30	1413.098
370.51	1402.859
370.73	1343.468
370.95	1460.202
371.16	1341.420
371.38	1486.825
371.60	1452.010
371.81	1435.626
372.03	1392.619
372.24	1433.578
372.46	1411.050
372.68	1374.187
372.89	1359.851
373.11	1421.290
373.32	1501.161
373.54	1470.442
373.76	1361.899
373.97	1353.707
374.19	1507.305
374.40	1470.442
374.62	1458.154
374.84	1437.674
375.05	1349.611
375.27	1495.017
375.48	1402.859
375.70	1359.851
375.92	1368.043
376.13	1419.242
376.35	1415.146
376.56	1423.338
376.78	1374.187
376.99	1368.043
377.21	1478.633
377.43	1384.427
377.64	1386.475
377.86	1409.002
378.07	1404.907
378.29	1447.914
378.51	1365.995
378.72	1357.803
378.94	1331.180
379.15	1343.468
379.37	1411.050
379.58	1452.010
379.80	1325.036
380.01	1454.058
380.23	1390.571
380.45	1443.818
380.66	1452.010
380.88	1404.907
381.09	1466.346
381.31	1462.250
381.52	1466.346
381.74	1300.460
381.95	1497.065
382.17	1431.530
382.39	1425.386
382.60	1413.098
382.82	1390.571
383.03	1435.626
383.25	1353.707
383.46	1490.921
383.68	1413.098
383.89	1413.098
384.11	1355.755
384.32	1345.515
384.54	1335.276
384.76	1402.859
384.97	1390.571
385.19	1357.803
385.40	1433.578
385.62	1431.530
385.83	1419.242
386.05	1329.132
386.26	1404.907
386.48	1390.571
386.69	1359.851
386.91	1435.626
387.12	1390.571
387.34	1431.530
387.55	1382.379
387.77	1339.372
387.98	1335.276
388.20	1429.482
388.41	1447.914
388.63	1384.427
388.84	1337.324
389.06	1409.002
389.27	1349.611
389.49	1370.091
389.70	1378.283
389.92	1409.002
390.13	1308.652
390.35	1351.659
390.56	1394.667
390.78	1372.139
390.99	1345.515
391.21	1396.715
391.42	1400.811
391.64	1404.907
391.85	1273.837
392.07	1402.859
392.28	1349.611
392.50	1406.955
392.71	1382.379
392.93	1345.515
393.14	1409.002
393.36	1404.907
393.57	1380.331
393.79	1488.873
394.00	1365.995
394.22	1335.276
394.43	1343.468
394.65	1462.250
394.86	1363.947
395.08	1337.324
395.29	1275.885
395.50	1425.386
395.72	1378.283
395.93	1406.955
396.15	1345.515
396.36	1357.803
396.58	1388.523
396.79	1374.187
397.01	1349.611
397.22	1378.283
397.44	1355.755
397.65	1279.980
397.87	1314.796
398.08	1368.043
398.29	1382.379
398.51	1437.674
398.72	1279.980
398.94	1388.523
399.15	1390.571
399.37	1335.276
399.58	1306.604
399.80	1325.036
400.01	1312.748
400.22	1382.379
400.44	1437.674
400.65	1404.907
400.87	1363.947
401.08	1388.523
401.30	1361.899
401.51	1392.619
401.72	1345.515
401.94	1277.932
402.15	1406.955
402.37	1333.228
402.58	1417.194
402.80	1380.331
403.01	1398.763
403.22	1368.043
403.44	1357.803
403.65	1249.261
403.87	1300.460
404.08	1390.571
404.30	1378.283
404.51	1368.043
404.72	1341.420
404.94	1374.187
405.15	1390.571
405.37	1353.707
405.58	1421.290
405.79	1400.811
406.01	1343.468
406.22	1335.276
406.44	1288.172
406.65	1380.331
406.86	1312.748
407.08	1337.324
407.29	1339.372
407.51	1306.604
407.72	1433.578
407.93	1353.707
408.15	1304.556
408.36	1363.947
408.58	1304.556
408.79	1357.803
409.00	1349.611
409.22	1343.468
409.43	1329.132
409.64	1433.578
409.86	1361.899
410.07	1370.091
410.29	1269.741
410.50	1429.482
410.71	1388.523
410.93	1341.420
411.14	1392.619
411.35	1384.427
411.57	1394.667
411.78	1390.571
412.00	1355.755
412.21	1478.633
412.42	1370.091
412.64	1445.866
412.85	1284.076
413.06	1363.947
413.28	1392.619
413.49	1329.132
413.70	1386.475
413.92	1374.187
414.13	1355.755
414.34	1308.652
414.56	1419.242
414.77	1384.427
414.98	1361.899
415.20	1374.187
415.41	1388.523
415.63	1310.700
415.84	1363.947
416.05	1310.700
416.27	1353.707
416.48	1310.700
416.69	1306.604
416.91	1365.995
417.12	1290.220
417.33	1331.180
417.55	1396.715
417.76	1464.298
417.97	1353.707
418.19	1255.405
418.40	1372.139
418.61	1339.372
418.83	1368.043
419.04	1339.372
419.25	1359.851
419.46	1331.180
419.68	1304.556
419.89	1406.955
420.10	1331.180
420.32	1339.372
420.53	1316.844
420.74	1341.420
420.96	1300.460
421.17	1304.556
421.38	1357.803
421.60	1347.563
421.81	1353.707
422.02	1329.132
422.23	1378.283
422.45	1320.940
422.66	1316.844
422.87	1372.139
423.09	1449.962
423.30	1370.091
423.51	1341.420
423.73	1308.652
423.94	1327.084
424.15	1300.460
424.36	1304.556
424.58	1353.707
424.79	1353.707
425.00	1337.324
425.22	1294.316
425.43	1320.940
425.64	1282.028
425.85	1406.955
426.07	1386.475
426.28	1380.331
426.49	1368.043
426.71	1386.475
426.92	1345.515
427.13	1359.851
427.34	1365.995
427.56	1382.379
427.77	1390.571
427.98	1404.907
428.19	1388.523
428.41	1349.611
428.62	1374.187
428.83	1351.659
429.04	1363.947
429.26	1380.331
429.47	1325.036
429.68	1378.283
429.89	1320.940
430.11	1355.755
430.32	1294.316
430.53	1290.220
430.74	1359.851
430.96	1304.556
431.17	1304.556
431.38	1429.482
431.59	1402.859
431.81	1400.811
432.02	1409.002
432.23	1355.755
432.44	1349.611
432.66	1409.002
432.87	1439.722
433.08	1357.803
433.29	1370.091
433.51	1339.372
433.72	1337.324
433.93	1284.076
434.14	1322.988
434.35	1423.338
434.57	1320.940
434.78	1361.899
434.99	1312.748
435.20	1339.372
435.42	1339.372
435.63	1322.988
435.84	1341.420
436.05	1292.268
436.26	1400.811
436.48	1349.611
436.69	1345.515
436.90	1341.420
437.11	1286.124
437.32	1341.420
437.54	1333.228
437.75	1314.796
437.96	1409.002
438.17	1411.050
438.38	1241.069
438.60	1331.180
438.81	1327.084
439.02	1347.563
439.23	1265.645
439.44	1325.036
439.66	1288.172
439.87	1329.132
440.08	1286.124
440.29	1343.468
440.50	1327.084
440.72	1337.324
440.93	1298.412
441.14	1353.707
441.35	1361.899
441.56	1331.180
441.77	1294.316
441.99	1325.036
442.20	1310.700
442.41	1327.084
442.62	1306.604
442.83	1329.132
443.04	1312.748
443.26	1310.700
443.47	1349.611
443.68	1314.796
443.89	1411.050
444.10	1361.899
444.31	1460.202
444.53	1365.995
444.74	1314.796
444.95	1361.899
445.16	1376.235
445.37	1386.475
445.58	1372.139
445.80	1378.283
446.01	1337.324
446.22	1361.899
446.43	1247.213
446.64	1376.235
446.85	1329.132
447.06	1298.412
447.28	1325.036
447.49	1288.172
447.70	1290.220
447.91	1349.611
448.12	1226.733
448.33	1325.036
448.54	1359.851
448.76	1347.563
448.97	1363.947
449.18	1400.811
449.39	1361.899
449.60	1296.364
449.81	1363.947
450.02	1349.611
450.23	1314.796
450.45	1396.715
450.66	1345.515
450.87	1325.036
451.08	1245.165
451.29	1398.763
451.50	1359.851
451.71	1417.194
451.92	1427.434
452.13	1279.980
452.35	1382.379
452.56	1355.755
452.77	1279.980
452.98	1343.468
453.19	1343.468
453.40	1384.427
453.61	1392.619
453.82	1314.796
454.03	1294.316
454.25	1388.523
454.46	1365.995
454.67	1343.468
454.88	1306.604
455.09	1365.995
455.30	1406.955
455.51	1304.556
455.72	1316.844
455.93	1386.475
456.14	1351.659
456.35	1374.187
456.56	1372.139
456.78	1398.763
456.99	1449.962
457.20	1357.803
457.41	1322.988
457.62	1298.412
457.83	1359.851
458.04	1351.659
458.25	1396.715
458.46	1327.084
458.67	1400.811
458.88	1370.091
459.09	1357.803
459.30	1462.250
459.51	1400.811
459.73	1345.515
459.94	1396.715
460.15	1345.515
460.36	1314.796
460.57	1372.139
460.78	1384.427
460.99	1363.947
461.20	1318.892
461.41	1320.940
461.62	1359.851
461.83	1423.338
462.04	1376.235
462.25	1396.715
462.46	1331.180
462.67	1380.331
462.88	1327.084
463.09	1433.578
463.30	1378.283
463.51	1374.187
463.72	1443.818
463.93	1402.859
464.15	1433.578
464.36	1411.050
464.57	1404.907
464.78	1355.755
464.99	1333.228
465.20	1341.420
465.41	1314.796
465.62	1368.043
465.83	1335.276
466.04	1374.187
466.25	1409.002
466.46	1320.940
466.67	1355.755
466.88	1415.146
467.09	1329.132
467.30	1409.002
467.51	1316.844
467.72	1359.851
467.93	1355.755
468.14	1372.139
468.35	1365.995
468.56	1341.420
468.77	1372.139
468.98	1445.866
469.19	1409.002
469.40	1443.818
469.61	1368.043
469.82	1292.268
470.03	1423.338
470.24	1409.002
470.45	1425.386
470.66	1335.276
470.87	1345.515
471.08	1454.058
471.29	1355.755
471.50	1409.002
471.71	1355.755
471.92	1368.043
472.13	1398.763
472.34	1394.667
472.55	1415.146
472.76	1370.091
472.97	1435.626
473.18	1437.674
473.39	1372.139
473.60	1425.386
473.81	1368.043
474.01	1400.811
474.22	1296.364
474.43	1421.290
474.64	1417.194
474.85	1376.235
475.06	1390.571
475.27	1404.907
475.48	1406.955
475.69	1357.803
475.90	1411.050
476.11	1382.379
476.32	1378.283
476.53	1433.578
476.74	1368.043
476.95	1355.755
477.16	1382.379
477.37	1429.482
477.58	1390.571
477.79	1417.194
478.00	1421.290
478.21	1372.139
478.41	1290.220
478.62	1374.187
478.83	1380.331
479.04	1421.290
479.25	1325.036
479.46	1370.091
479.67	1316.844
479.88	1292.268
480.09	1452.010
480.30	1400.811
480.51	1482.729
480.72	1441.770
480.93	1400.811
481.14	1421.290
481.34	1359.851
481.55	1388.523
481.76	1429.482
481.97	1404.907
482.18	1394.667
482.39	1306.604
482.60	1368.043
482.81	1464.298
483.02	1351.659
483.23	1449.962
483.44	1359.851
483.65	1431.530
483.85	1306.604
484.06	1409.002
484.27	1349.611
484.48	1341.420
484.69	1361.899
484.90	1388.523
485.11	1359.851
485.32	1368.043
485.53	1411.050
485.73	1449.962
485.94	1404.907
486.15	1409.002
486.36	1372.139
486.57	1349.611
486.78	1411.050
486.99	1437.674
487.20	1460.202
487.41	1515.497
487.61	1372.139
487.82	1353.707
488.03	1329.132
488.24	1376.235
488.45	1380.331
488.66	1441.770
488.87	1343.468
489.08	1452.010
489.28	1419.242
489.49	1404.907
489.70	1361.899
489.91	1456.106
490.12	1343.468
490.33	1320.940
490.54	1296.364
490.74	1349.611
490.95	1361.899
491.16	1443.818
491.37	1497.065
491.58	1296.364
491.79	1343.468
492.00	1359.851
492.20	1320.940
492.41	1390.571
492.62	1392.619
492.83	1372.139
493.04	1394.667
493.25	1425.386
493.45	1390.571
493.66	1402.859
493.87	1320.940
494.08	1437.674
494.29	1376.235
494.50	1419.242
494.70	1363.947
494.91	1417.194
495.12	1359.851
495.33	1388.523
495.54	1468.394
495.75	1421.290
495.95	1406.955
496.16	1484.777
496.37	1423.338
496.58	1443.818
496.79	1400.811
496.99	1322.988
497.20	1439.722
497.41	1423.338
497.62	1341.420
497.83	1409.002
498.04	1468.394
498.24	1378.283
498.45	1349.611
498.66	1384.427
498.87	1370.091
499.08	1433.578
499.28	1320.940
499.49	1372.139
499.70	1331.180
499.91	1421.290
500.12	1388.523
500.32	1454.058
500.53	1398.763
500.74	1404.907
500.95	1363.947
501.15	1380.331
501.36	1306.604
501.57	1341.420
501.78	1421.290
501.99	1325.036
502.19	1345.515
502.40	1411.050
502.61	1394.667
502.82	1402.859
503.02	1359.851
503.23	1437.674
503.44	1392.619
503.65	1368.043
503.86	1304.556
504.06	1306.604
504.27	1400.811
504.48	1335.276
504.69	1417.194
504.89	1331.180
505.10	1304.556
505.31	1343.468
505.52	1359.851
505.72	1335.276
505.93	1200.110
506.14	1312.748
506.35	1345.515
506.55	1345.515
506.76	1333.228
506.97	1322.988
507.18	1402.859
507.38	1349.611
507.59	1331.180
507.80	1402.859
508.01	1312.748
508.21	1421.290
508.42	1443.818
508.63	1365.995
508.84	1312.748
509.04	1378.283
509.25	1413.098
509.46	1355.755
509.67	1402.859
509.87	1335.276
510.08	1382.379
510.29	1390.571
510.49	1392.619
510.70	1406.955
510.91	1359.851
511.12	1406.955
511.32	1333.228
511.53	1357.803
511.74	1288.172
511.94	1267.693
512.15	1380.331
512.36	1308.652
512.57	1306.604
512.77	1345.515
512.98	1329.132
513.19	1335.276
513.39	1398.763
513.60	1312.748
513.81	1454.058
514.01	1439.722
514.22	1378.283
514.43	1335.276
514.64	1306.604
514.84	1458.154
515.05	1404.907
515.26	1310.700
515.46	1353.707
515.67	1390.571
515.88	1347.563
516.08	1402.859
516.29	1335.276
516.50	1300.460
516.70	1349.611
516.91	1357.803
517.12	1333.228
517.32	1288.172
517.53	1312.748
517.74	1376.235
517.95	1322.988
518.15	1345.515
518.36	1372.139
518.57	1325.036
518.77	1357.803
518.98	1312.748
519.19	1382.379
519.39	1347.563
519.60	1339.372
519.80	1363.947
520.01	1368.043
520.22	1325.036
520.42	1318.892
520.63	1378.283
520.84	1310.700
521.04	1386.475
521.25	1443.818
521.46	1380.331
521.66	1331.180
521.87	1347.563
522.08	1286.124
522.28	1368.043
522.49	1318.892
522.70	1390.571
522.90	1378.283
523.11	1351.659
523.31	1320.940
523.52	1355.755
523.73	1320.940
523.93	1310.700
524.14	1392.619
524.35	1339.372
524.55	1310.700
524.76	1409.002
524.97	1259.501
525.17	1400.811
525.38	1318.892
525.58	1333.228
525.79	1363.947
526.00	1343.468
526.20	1355.755
526.41	1361.899
526.61	1406.955
526.82	1316.844
527.03	1331.180
527.23	1320.940
527.44	1288.172
527.64	1343.468
527.85	1378.283
528.06	1363.947
528.26	1398.763
528.47	1300.460
528.68	1382.379
528.88	1429.482
529.09	1347.563
529.29	1341.420
529.50	1316.844
529.70	1343.468
529.91	1378.283
530.12	1304.556
530.32	1335.276
530.53	1388.523
530.73	1329.132
530.94	1429.482
531.15	1349.611
531.35	1325.036
531.56	1378.283
531.76	1314.796
531.97	1327.084
532.17	1292.268
532.38	1325.036
532.59	1288.172
532.79	1370.091
533.00	1322.988
533.20	1286.124
533.41	1374.187
533.61	1320.940
533.82	1347.563
534.03	1296.364
534.23	1390.571
534.44	1341.420
534.64	1365.995
534.85	1279.980
535.05	1361.899
535.26	1353.707
535.46	1325.036
535.67	1327.084
535.88	1279.980
536.08	1284.076
536.29	1370.091
536.49	1380.331
536.70	1304.556
536.90	1409.002
537.11	1402.859
537.31	1398.763
537.52	1363.947
537.72	1288.172
537.93	1374.187
538.13	1341.420
538.34	1292.268
538.55	1382.379
538.75	1331.180
538.96	1349.611
539.16	1353.707
539.37	1316.844
539.57	1308.652
539.78	1353.707
539.98	1277.932
540.19	1406.955
540.39	1271.789
540.60	1302.508
540.80	1310.700
541.01	1294.316
541.21	1271.789
541.42	1335.276
541.62	1357.803
541.83	1277.932
542.03	1384.427
542.24	1374.187
542.44	1355.755
542.65	1320.940
542.85	1333.228
543.06	1308.652
543.26	1308.652
543.47	1363.947
543.67	1361.899
543.88	1382.379
544.08	1380.331
544.29	1355.755
544.49	1325.036
544.70	1349.611
544.90	1355.755
545.11	1318.892
545.31	1357.803
545.52	1363.947
545.72	1310.700
545.93	1200.110
546.13	1384.427
546.34	1288.172
546.54	1320.940
546.75	1359.851
546.95	1363.947
547.15	1259.501
547.36	1308.652
547.56	1357.803
547.77	1374.187
547.97	1351.659
548.18	1302.508
548.38	1327.084
548.59	1396.715
548.79	1245.165
549.00	1327.084
549.20	1411.050
549.41	1308.652
549.61	1376.235
549.81	1361.899
550.02	1382.379
550.22	1355.755
550.43	1316.844
550.63	1337.324
550.84	1384.427
551.04	1374.187
551.25	1343.468
551.45	1339.372
551.65	1325.036
551.86	1353.707
552.06	1304.556
552.27	1255.405
552.47	1341.420
552.68	1386.475
552.88	1351.659
553.08	1333.228
553.29	1298.412
553.49	1290.220
553.70	1382.379
553.90	1271.789
554.11	1413.098
554.31	1226.733
554.51	1345.515
554.72	1353.707
554.92	1294.316
555.13	1335.276
555.33	1263.597
555.53	1325.036
555.74	1372.139
555.94	1333.228
556.15	1316.844
556.35	1322.988
556.56	1421.290
556.76	1347.563
556.96	1345.515
557.17	1302.508
557.37	1345.515
557.58	1374.187
557.78	1294.316
557.98	1288.172
558.19	1390.571
558.39	1331.180
558.59	1275.885
558.80	1296.364
559.00	1298.412
559.21	1363.947
559.41	1327.084
559.61	1368.043
559.82	1279.980
560.02	1294.316
560.23	1378.283
560.43	1413.098
560.63	1359.851
560.84	1284.076
561.04	1353.707
561.24	1351.659
561.45	1345.515
561.65	1284.076
561.85	1294.316
562.06	1417.194
562.26	1206.254
562.47	1322.988
562.67	1290.220
562.87	1277.932
563.08	1349.611
563.28	1351.659
563.48	1343.468
563.69	1318.892
563.89	1361.899
564.09	1376.235
564.30	1308.652
564.50	1361.899
564.70	1341.420
564.91	1365.995
565.11	1302.508
565.31	1304.556
565.52	1327.084
565.72	1359.851
565.92	1411.050
566.13	1363.947
566.33	1374.187
566.53	1347.563
566.74	1255.405
566.94	1370.091
567.14	1359.851
567.35	1365.995
567.55	1423.338
567.75	1337.324
567.96	1304.556
568.16	1316.844
568.36	1273.837
568.57	1337.324
568.77	1216.493
568.97	1310.700
569.18	1349.611
569.38	1331.180
569.58	1341.420
569.79	1335.276
569.99	1363.947
570.19	1363.947
570.39	1241.069
570.60	1220.589
570.80	1349.611
571.00	1296.364
571.21	1335.276
571.41	1345.515
571.61	1388.523
571.82	1396.715
572.02	1314.796
572.22	1245.165
572.42	1288.172
572.63	1316.844
572.83	1282.028
573.03	1333.228
573.24	1314.796
573.44	1296.364
573.64	1279.980
573.84	1374.187
574.05	1325.036
574.25	1363.947
574.45	1347.563
574.66	1361.899
574.86	1277.932
575.06	1441.770
575.26	1292.268
575.47	1374.187
575.67	1365.995
575.87	1363.947
576.07	1277.932
576.28	1249.261
576.48	1355.755
576.68	1302.508
576.88	1355.755
577.09	1351.659
577.29	1343.468
577.49	1275.885
577.69	1298.412
577.90	1400.811
578.10	1294.316
578.30	1353.707
578.50	1310.700
578.71	1345.515
578.91	1306.604
579.11	1333.228
579.31	1320.940
579.52	1380.331
579.72	1298.412
579.92	1314.796
580.12	1312.748
580.33	1341.420
580.53	1292.268
580.73	1306.604
580.93	1341.420
581.13	1333.228
581.34	1320.940
581.54	1310.700
581.74	1316.844
581.94	1392.619
582.15	1298.412
582.35	1288.172
582.55	1290.220
582.75	1296.364
582.95	1265.645
583.16	1282.028
583.36	1267.693
583.56	1247.213
583.76	1282.028
583.96	1261.549
584.17	1310.700
584.37	1308.652
584.57	1263.597
584.77	1308.652
584.97	1298.412
585.18	1308.652
585.38	1241.069
585.58	1339.372
585.78	1308.652
585.98	1353.707
586.19	1333.228
586.39	1353.707
586.59	1284.076
586.79	1316.844
586.99	1228.781
587.20	1380.331
587.40	1263.597
587.60	1329.132
587.80	1306.604
588.00	1370.091
588.20	1359.851
588.41	1374.187
588.61	1251.309
588.81	1314.796
589.01	1378.283
589.21	1365.995
589.41	1302.508
589.62	1386.475
589.82	1300.460
590.02	1308.652
590.22	1388.523
590.42	1275.885
590.62	1368.043
590.83	1314.796
591.03	1345.515
591.23	1243.117
591.43	1353.707
591.63	1275.885
591.83	1282.028
592.03	1384.427
592.24	1306.604
592.44	1359.851
592.64	1275.885
592.84	1312.748
593.04	1312.748
593.24	1282.028
593.44	1327.084
593.65	1277.932
593.85	1296.364
594.05	1329.132
594.25	1337.324
594.45	1386.475
594.65	1355.755
594.85	1314.796
595.06	1300.460
595.26	1419.242
595.46	1271.789
595.66	1359.851
595.86	1257.453
596.06	1255.405
596.26	1214.445
596.46	1325.036
596.66	1308.652
596.87	1325.036
597.07	1357.803
597.27	1316.844
597.47	1325.036
597.67	1433.578
597.87	1361.899
598.07	1343.468
598.27	1384.427
598.47	1300.460
598.67	1325.036
598.88	1249.261
599.08	1347.563
599.28	1263.597
599.48	1308.652
599.68	1374.187
599.88	1300.460
600.08	1396.715
600.28	1310.700
600.48	1308.652
600.68	1339.372
600.88	1413.098
601.09	1320.940
601.29	1337.324
601.49	1275.885
601.69	1353.707
601.89	1308.652
602.09	1318.892
602.29	1357.803
602.49	1392.619
602.69	1279.980
602.89	1363.947
603.09	1322.988
603.29	1347.563
603.49	1437.674
603.69	1327.084
603.90	1265.645
604.10	1398.763
604.30	1355.755
604.50	1318.892
604.70	1306.604
604.90	1376.235
605.10	1304.556
605.30	1316.844
605.50	1314.796
605.70	1404.907
605.90	1310.700
606.10	1320.940
606.30	1261.549
606.50	1316.844
606.70	1294.316
606.90	1292.268
607.10	1368.043
607.30	1316.844
607.50	1310.700
607.70	1398.763
607.90	1343.468
608.10	1261.549
608.30	1279.980
608.50	1286.124
608.70	1322.988
608.90	1341.420
609.11	1347.563
609.31	1249.261
609.51	1355.755
609.71	1341.420
609.91	1345.515
610.11	1349.611
610.31	1400.811
610.51	1370.091
610.71	1337.324
610.91	1409.002
611.11	1449.962
611.31	1390.571
611.51	1312.748
611.71	1415.146
611.91	1431.530
612.11	1363.947
612.31	1404.907
612.51	1365.995
612.71	1339.372
612.91	1322.988
613.11	1341.420
613.31	1415.146
613.51	1402.859
613.71	1339.372
613.91	1390.571
614.11	1359.851
614.31	1351.659
614.50	1398.763
614.70	1355.755
614.90	1376.235
615.10	1447.914
615.30	1347.563
615.50	1294.316
615.70	1374.187
615.90	1298.412
616.10	1333.228
616.30	1370.091
616.50	1370.091
616.70	1357.803
616.90	1388.523
617.10	1329.132
617.30	1417.194
617.50	1339.372
617.70	1361.899
617.90	1361.899
618.10	1271.789
618.30	1327.084
618.50	1378.283
618.70	1292.268
618.90	1368.043
619.10	1378.283
619.30	1347.563
619.49	1363.947
619.69	1261.549
619.89	1343.468
620.09	1318.892
620.29	1302.508
620.49	1353.707
620.69	1368.043
620.89	1406.955
621.09	1361.899
621.29	1263.597
621.49	1302.508
621.69	1331.180
621.89	1402.859
622.09	1357.803
622.29	1306.604
622.48	1333.228
622.68	1368.043
622.88	1361.899
623.08	1380.331
623.28	1431.530
623.48	1306.604
623.68	1333.228
623.88	1341.420
624.08	1333.228
624.28	1282.028
624.48	1343.468
624.67	1314.796
624.87	1357.803
625.07	1304.556
625.27	1388.523
625.47	1345.515
625.67	1415.146
625.87	1290.220
626.07	1329.132
626.27	1343.468
626.47	1232.877
626.66	1298.412
626.86	1421.290
627.06	1378.283
627.26	1413.098
627.46	1355.755
627.66	1269.741
627.86	1372.139
628.06	1429.482
628.25	1308.652
628.45	1406.955
628.65	1372.139
628.85	1298.412
629.05	1308.652
629.25	1325.036
629.45	1327.084
629.65	1322.988
629.84	1368.043
630.04	1322.988
630.24	1400.811
630.44	1263.597
630.64	1388.523
630.84	1415.146
631.04	1314.796
631.23	1349.611
631.43	1329.132
631.63	1372.139
631.83	1335.276
632.03	1318.892
632.23	1388.523
632.42	1365.995
632.62	1353.707
632.82	1359.851
633.02	1361.899
633.22	1359.851
633.42	1275.885
633.62	1351.659
633.81	1300.460
634.01	1361.899
634.21	1386.475
634.41	1292.268
634.61	1386.475
634.80	1361.899
635.00	1306.604
635.20	1318.892
635.40	1320.940
635.60	1349.611
635.80	1320.940
635.99	1279.980
636.19	1277.932
636.39	1386.475
636.59	1304.556
636.79	1351.659
636.98	1359.851
637.18	1316.844
637.38	1349.611
637.58	1325.036
637.78	1341.420
637.97	1288.172
638.17	1331.180
638.37	1308.652
638.57	1271.789
638.77	1390.571
638.96	1271.789
639.16	1312.748
639.36	1365.995
639.56	1300.460
639.76	1290.220
639.95	1300.460
640.15	1343.468
640.35	1329.132
640.55	1359.851
640.75	1423.338
640.94	1263.597
641.14	1392.619
641.34	1365.995
641.54	1290.220
641.73	1361.899
641.93	1384.427
642.13	1284.076
642.33	1359.851
642.53	1421.290
642.72	1310.700
642.92	1341.420
643.12	1275.885
643.32	1275.885
643.51	1411.050
643.71	1349.611
643.91	1316.844
644.11	1320.940
644.30	1304.556
644.50	1325.036
644.70	1374.187
644.90	1363.947
645.09	1409.002
645.29	1257.453
645.49	1333.228
645.69	1343.468
645.88	1357.803
646.08	1333.228
646.28	1419.242
646.48	1320.940
646.67	1325.036
646.87	1288.172
647.07	1359.851
647.26	1398.763
647.46	1351.659
647.66	1390.571
647.86	1376.235
648.05	1304.556
648.25	1411.050
648.45	1425.386
648.65	1339.372
648.84	1212.398
649.04	1343.468
649.24	1374.187
649.43	1325.036
649.63	1349.611
649.83	1454.058
650.03	1372.139
650.22	1361.899
650.42	1382.379
650.62	1351.659
650.81	1329.132
651.01	1427.434
651.21	1351.659
651.40	1351.659
651.60	1277.932
651.80	1365.995
652.00	1310.700
652.19	1433.578
652.39	1384.427
652.59	1388.523
652.78	1400.811
652.98	1318.892
653.18	1349.611
653.37	1339.372
653.57	1368.043
653.77	1302.508
653.96	1304.556
654.16	1429.482
654.36	1327.084
654.55	1384.427
654.75	1345.515
654.95	1306.604
655.14	1365.995
655.34	1437.674
655.54	1386.475
655.73	1277.932
655.93	1409.002
656.13	1353.707
656.32	1351.659
656.52	1363.947
656.72	1341.420
656.91	1359.851
657.11	1335.276
657.31	1429.482
657.50	1380.331
657.70	1396.715
657.90	1306.604
658.09	1329.132
658.29	1300.460
658.49	1390.571
658.68	1349.611
658.88	1421.290
659.07	1320.940
659.27	1398.763
659.47	1312.748
659.66	1355.755
659.86	1349.611
660.06	1282.028
660.25	1359.851
660.45	1419.242
660.64	1329.132
660.84	1320.940
661.04	1402.859
661.23	1365.995
661.43	1298.412
661.63	1343.468
661.82	1312.748
662.02	1331.180
662.21	1368.043
662.41	1396.715
662.61	1421.290
662.80	1370.091
663.00	1306.604
663.19	1294.316
663.39	1425.386
663.59	1413.098
663.78	1312.748
663.98	1449.962
664.17	1368.043
664.37	1376.235
664.57	1378.283
664.76	1429.482
664.96	1331.180
665.15	1294.316
665.35	1312.748
665.55	1322.988
665.74	1359.851
665.94	1359.851
666.13	1318.892
666.33	1365.995
666.53	1337.324
666.72	1325.036
666.92	1361.899
667.11	1290.220
667.31	1347.563
667.50	1357.803
667.70	1374.187
667.90	1409.002
668.09	1296.364
668.29	1355.755
668.48	1314.796
668.68	1333.228
668.87	1365.995
669.07	1322.988
669.26	1363.947
669.46	1363.947
669.66	1406.955
669.85	1310.700
670.05	1363.947
670.24	1316.844
670.44	1345.515
670.63	1318.892
670.83	1355.755
671.02	1331.180
671.22	1294.316
671.42	1380.331
671.61	1329.132
671.81	1359.851
672.00	1327.084
672.20	1363.947
672.39	1353.707
672.59	1314.796
672.78	1402.859
672.98	1441.770
673.17	1423.338
673.37	1370.091
673.56	1265.645
673.76	1388.523
673.95	1374.187
674.15	1390.571
674.34	1365.995
674.54	1365.995
674.73	1351.659
674.93	1400.811
675.13	1392.619
675.32	1435.626
675.52	1419.242
675.71	1423.338
675.91	1372.139
676.10	1359.851
676.30	1325.036
676.49	1396.715
676.69	1372.139
676.88	1368.043
677.08	1421.290
677.27	1325.036
677.47	1402.859
677.66	1400.811
677.86	1292.268
678.05	1431.530
678.24	1353.707
678.44	1452.010
678.63	1363.947
678.83	1404.907
679.02	1310.700
679.22	1345.515
679.41	1394.667
679.61	1374.187
679.80	1411.050
680.00	1325.036
680.19	1386.475
680.39	1415.146
680.58	1368.043
680.78	1314.796
680.97	1396.715
681.17	1318.892
681.36	1374.187
681.56	1380.331
681.75	1327.084
681.94	1456.106
682.14	1427.434
682.33	1384.427
682.53	1398.763
682.72	1347.563
682.92	1355.755
683.11	1480.681
683.31	1427.434
683.50	1345.515
683.69	1318.892
683.89	1331.180
684.08	1406.955
684.28	1404.907
684.47	1429.482
684.67	1417.194
684.86	1286.124
685.06	1351.659
685.25	1400.811
685.44	1386.475
685.64	1404.907
685.83	1316.844
686.03	1388.523
686.22	1325.036
686.42	1404.907
686.61	1392.619
686.80	1345.515
687.00	1318.892
687.19	1345.515
687.39	1372.139
687.58	1314.796
687.77	1306.604
687.97	1390.571
688.16	1372.139
688.36	1384.427
688.55	1404.907
688.74	1415.146
688.94	1421.290
689.13	1433.578
689.33	1357.803
689.52	1380.331
689.71	1376.235
689.91	1374.187
690.10	1339.372
690.30	1394.667
690.49	1402.859
690.68	1443.818
690.88	1417.194
691.07	1359.851
691.27	1435.626
691.46	1447.914
691.65	1400.811
691.85	1445.866
692.04	1390.571
692.23	1351.659
692.43	1458.154
692.62	1361.899
692.82	1388.523
693.01	1380.331
693.20	1368.043
693.40	1368.043
693.59	1396.715
693.78	1353.707
693.98	1441.770
694.17	1372.139
694.36	1464.298
694.56	1433.578
694.75	1415.146
694.94	1396.715
695.14	1429.482
695.33	1361.899
695.53	1456.106
695.72	1396.715
695.91	1349.611
696.11	1359.851
696.30	1382.379
696.49	1343.468
696.69	1409.002
696.88	1386.475
697.07	1349.611
697.27	1404.907
697.46	1429.482
697.65	1357.803
697.85	1312.748
698.04	1349.611
698.23	1372.139
698.43	1413.098
698.62	1388.523
698.81	1365.995
699.01	1413.098
699.20	1359.851
699.39	1406.955
699.58	1320.940
699.78	1382.379
699.97	1423.338
700.16	1374.187
700.36	1380.331
700.55	1349.611
700.74	1386.475
700.94	1310.700
701.13	1370.091
701.32	1388.523
701.52	1390.571
701.71	1382.379
701.90	1415.146
702.09	1380.331
702.29	1458.154
702.48	1339.372
702.67	1359.851
702.87	1443.818
703.06	1435.626
703.25	1380.331
703.44	1361.899
703.64	1488.873
703.83	1388.523
704.02	1378.283
704.22	1435.626
704.41	1365.995
704.60	1400.811
704.79	1409.002
704.99	1372.139
705.18	1351.659
705.37	1417.194
705.56	1355.755
705.76	1347.563
705.95	1398.763
706.14	1419.242
706.33	1419.242
706.53	1368.043
706.72	1384.427
706.91	1413.098
707.11	1325.036
707.30	1380.331
707.49	1396.715
707.68	1435.626
707.88	1396.715
708.07	1392.619
708.26	1413.098
708.45	1370.091
708.64	1384.427
708.84	1429.482
709.03	1380.331
709.22	1298.412
709.41	1425.386
709.61	1435.626
709.80	1452.010
709.99	1456.106
710.18	1406.955
710.38	1474.538
710.57	1374.187
710.76	1376.235
710.95	1394.667
711.14	1437.674
711.34	1378.283
711.53	1380.331
711.72	1415.146
711.91	1441.770
712.11	1376.235
712.30	1372.139
712.49	1427.434
712.68	1357.803
712.87	1417.194
713.07	1368.043
713.26	1425.386
713.45	1452.010
713.64	1411.050
713.83	1359.851
714.03	1357.803
714.22	1454.058
714.41	1439.722
714.60	1460.202
714.79	1378.283
714.99	1339.372
715.18	1390.571
715.37	1370.091
715.56	1376.235
715.75	1370.091
715.94	1339.372
716.14	1325.036
716.33	1384.427
716.52	1409.002
716.71	1390.571
716.90	1312.748
717.10	1355.755
717.29	1308.652
717.48	1425.386
717.67	1351.659
717.86	1329.132
718.05	1411.050
718.24	1386.475
718.44	1398.763
718.63	1425.386
718.82	1365.995
719.01	1445.866
719.20	1345.515
719.39	1464.298
719.59	1363.947
719.78	1327.084
719.97	1400.811
720.16	1439.722
720.35	1394.667
720.54	1380.331
720.73	1441.770
720.93	1279.980
721.12	1357.803
721.31	1335.276
721.50	1353.707
721.69	1443.818
721.88	1374.187
722.07	1427.434
722.27	1380.331
722.46	1460.202
722.65	1368.043
722.84	1372.139
723.03	1304.556
723.22	1370.091
723.41	1304.556
723.60	1392.619
723.79	1337.324
723.99	1331.180
724.18	1376.235
724.37	1368.043
724.56	1386.475
724.75	1333.228
724.94	1351.659
725.13	1392.619
725.32	1439.722
725.51	1337.324
725.71	1396.715
725.90	1368.043
726.09	1353.707
726.28	1378.283
726.47	1349.611
726.66	1351.659
726.85	1320.940
727.04	1294.316
727.23	1310.700
727.42	1333.228
727.61	1380.331
727.81	1325.036
728.00	1347.563
728.19	1417.194
728.38	1384.427
728.57	1296.364
728.76	1396.715
728.95	1359.851
729.14	1341.420
729.33	1394.667
729.52	1298.412
729.71	1374.187
729.90	1353.707
730.09	1396.715
730.28	1386.475
730.48	1382.379
730.67	1351.659
730.86	1359.851
731.05	1396.715
731.24	1347.563
731.43	1392.619
731.62	1345.515
731.81	1329.132
732.00	1333.228
732.19	1386.475
732.38	1376.235
732.57	1339.372
732.76	1308.652
732.95	1370.091
733.14	1282.028
733.33	1320.940
733.52	1288.172
733.71	1288.172
733.90	1368.043
734.09	1390.571
734.28	1431.530
734.47	1335.276
734.66	1374.187
734.85	1400.811
735.04	1374.187
735.23	1351.659
735.42	1318.892
735.61	1333.228
735.81	1390.571
736.00	1343.468
736.19	1417.194
736.38	1333.228
736.57	1384.427
736.76	1363.947
736.95	1337.324
737.14	1359.851
737.33	1222.637
737.52	1357.803
737.71	1390.571
737.90	1347.563
738.09	1466.346
738.28	1402.859
738.47	1449.962
738.66	1353.707
738.85	1415.146
739.04	1378.283
739.22	1363.947
739.41	1292.268
739.60	1365.995
739.79	1320.940
739.98	1368.043
740.17	1308.652
740.36	1333.228
740.55	1312.748
740.74	1376.235
740.93	1298.412
741.12	1421.290
741.31	1359.851
741.50	1333.228
741.69	1329.132
741.88	1294.316
742.07	1306.604
742.26	1331.180
742.45	1347.563
742.64	1333.228
742.83	1247.213
743.02	1398.763
743.21	1415.146
743.40	1314.796
743.59	1343.468
743.78	1286.124
743.97	1402.859
744.16	1316.844
744.34	1269.741
744.53	1296.364
744.72	1341.420
744.91	1232.877
745.10	1335.276
745.29	1329.132
745.48	1337.324
745.67	1368.043
745.86	1316.844
746.05	1331.180
746.24	1310.700
746.43	1368.043
746.62	1343.468
746.81	1388.523
747.00	1339.372
747.18	1380.331
747.37	1374.187
747.56	1316.844
747.75	1310.700
747.94	1421.290
748.13	1339.372
748.32	1347.563
748.51	1365.995
748.70	1427.434
748.89	1363.947
749.08	1343.468
749.26	1329.132
749.45	1384.427
749.64	1302.508
749.83	1433.578
750.02	1339.372
750.21	1423.338
750.40	1335.276
750.59	1423.338
750.78	1345.515
750.96	1318.892
751.15	1279.980
751.34	1333.228
751.53	1423.338
751.72	1363.947
751.91	1327.084
752.10	1370.091
752.29	1282.028
752.47	1347.563
752.66	1304.556
752.85	1333.228
753.04	1382.379
753.23	1316.844
753.42	1396.715
753.61	1355.755
753.80	1333.228
753.98	1331.180
754.17	1316.844
754.36	1294.316
754.55	1325.036
754.74	1365.995
754.93	1392.619
755.12	1372.139
755.30	1269.741
755.49	1390.571
755.68	1310.700
755.87	1396.715
756.06	1320.940
756.25	1351.659
756.43	1341.420
756.62	1288.172
756.81	1286.124
757.00	1327.084
757.19	1320.940
757.38	1345.515
757.56	1318.892
757.75	1322.988
757.94	1310.700
758.13	1347.563
758.32	1202.158
758.51	1320.940
758.69	1322.988
758.88	1327.084
759.07	1353.707
759.26	1355.755
759.45	1359.851
759.63	1312.748
759.82	1271.789
760.01	1318.892
760.20	1419.242
760.39	1314.796
760.57	1349.611
760.76	1290.220
760.95	1226.733
761.14	1308.652
761.33	1400.811
761.51	1286.124
761.70	1376.235
761.89	1329.132
762.08	1259.501
762.27	1279.980
762.45	1322.988
762.64	1357.803
762.83	1341.420
763.02	1351.659
763.21	1322.988
763.39	1345.515
763.58	1402.859
763.77	1368.043
763.96	1310.700
764.14	1271.789
764.33	1339.372
764.52	1363.947
764.71	1325.036
764.89	1345.515
765.08	1325.036
765.27	1456.106
765.46	1394.667
765.65	1314.796
765.83	1347.563
766.02	1347.563
766.21	1359.851
766.40	1411.050
766.58	1335.276
766.77	1306.604
766.96	1312.748
767.15	1339.372
767.33	1304.556
767.52	1339.372
767.71	1335.276
767.90	1353.707
768.08	1322.988
768.27	1392.619
768.46	1378.283
768.64	1411.050
768.83	1374.187
769.02	1325.036
769.21	1396.715
769.39	1361.899
769.58	1398.763
769.77	1404.907
769.96	1290.220
770.14	1355.755
770.33	1331.180
770.52	1331.180
770.70	1409.002
770.89	1365.995
771.08	1370.091
771.27	1284.076
771.45	1337.324
771.64	1372.139
771.83	1349.611
772.01	1349.611
772.20	1261.549
772.39	1365.995
772.57	1382.379
772.76	1396.715
772.95	1304.556
773.14	1353.707
773.32	1327.084
773.51	1392.619
773.70	1357.803
773.88	1447.914
774.07	1359.851
774.26	1320.940
774.44	1331.180
774.63	1290.220
774.82	1380.331
775.00	1363.947
775.19	1318.892
775.38	1333.228
775.56	1396.715
775.75	1363.947
775.94	1400.811
776.12	1292.268
776.31	1347.563
776.50	1259.501
776.68	1314.796
776.87	1277.932
777.06	1406.955
777.24	1363.947
777.43	1335.276
777.62	1361.899
777.80	1357.803
777.99	1425.386
778.18	1284.076
778.36	1368.043
778.55	1353.707
778.74	1353.707
778.92	1404.907
779.11	1302.508
779.29	1345.515
779.48	1288.172
779.67	1429.482
779.85	1294.316
780.04	1376.235
780.23	1267.693
780.41	1359.851
780.60	1374.187
780.79	1361.899
780.97	1320.940
781.16	1308.652
781.34	1439.722
781.53	1413.098
781.72	1318.892
781.90	1335.276
782.09	1259.501
782.28	1384.427
782.46	1333.228
782.65	1302.508
782.83	1357.803
783.02	1372.139
783.21	1322.988
783.39	1335.276
783.58	1413.098
783.76	1320.940
783.95	1365.995
784.14	1355.755
784.32	1343.468
784.51	1427.434
784.69	1365.995
784.88	1380.331
785.06	1411.050
785.25	1363.947
785.44	1388.523
785.62	1376.235
785.81	1325.036
785.99	1372.139
786.18	1384.427
786.37	1394.667
786.55	1282.028
786.74	1402.859
786.92	1388.523
787.11	1316.844
787.29	1417.194
787.48	1370.091
787.67	1359.851
787.85	1419.242
788.04	1298.412
788.22	1302.508
788.41	1392.619
788.59	1310.700
788.78	1382.379
788.96	1372.139
789.15	1419.242
789.34	1359.851
789.52	1445.866
789.71	1302.508
789.89	1347.563
790.08	1376.235
790.26	1361.899
790.45	1435.626
790.63	1380.331
790.82	1390.571
791.00	1312.748
791.19	1310.700
791.38	1376.235
791.56	1337.324
791.75	1380.331
791.93	1294.316
792.12	1322.988
792.30	1380.331
792.49	1376.235
792.67	1335.276
792.86	1339.372
793.04	1308.652
793.23	1411.050
793.41	1378.283
793.60	1357.803
793.78	1337.324
793.97	1380.331
794.15	1277.932
794.34	1277.932
794.52	1353.707
794.71	1429.482
794.89	1363.947
795.08	1454.058
795.26	1396.715
795.45	1359.851
795.63	1380.331
795.82	1335.276
796.00	1345.515
796.19	1398.763
796.37	1435.626
796.56	1392.619
796.74	1279.980
796.93	1265.645
797.11	1390.571
797.30	1322.988
797.48	1370.091
797.67	1318.892
797.85	1353.707
798.04	1275.885
798.22	1411.050
798.41	1447.914
798.59	1320.940
798.77	1359.851
798.96	1343.468
799.14	1435.626
799.33	1351.659
799.51	1372.139
799.70	1384.427
799.88	1394.667
800.07	1409.002
800.25	1355.755
800.44	1376.235
800.62	1400.811
800.80	1296.364
800.99	1396.715
801.17	1396.715
801.36	1343.468
801.54	1404.907
801.73	1404.907
801.91	1376.235
802.10	1415.146
802.28	1302.508
802.46	1279.980
802.65	1421.290
802.83	1388.523
803.02	1353.707
803.20	1380.331
803.39	1327.084
803.57	1386.475
803.75	1368.043
803.94	1392.619
804.12	1300.460
804.31	1368.043
804.49	1363.947
804.67	1329.132
804.86	1341.420
805.04	1390.571
805.23	1302.508
805.41	1329.132
805.59	1325.036
805.78	1365.995
805.96	1382.379
806.15	1411.050
806.33	1363.947
806.51	1396.715
806.70	1390.571
806.88	1382.379
807.07	1335.276
807.25	1370.091
807.43	1359.851
807.62	1310.700
807.80	1345.515
807.99	1376.235
808.17	1365.995
808.35	1501.161
808.54	1302.508
808.72	1327.084
808.90	1378.283
809.09	1396.715
809.27	1423.338
809.46	1404.907
809.64	1349.611
809.82	1464.298
810.01	1404.907
810.19	1372.139
810.37	1368.043
810.56	1427.434
810.74	1331.180
810.92	1415.146
811.11	1398.763
811.29	1404.907
811.48	1390.571
811.66	1345.515
811.84	1363.947
812.03	1351.659
812.21	1365.995
812.39	1404.907
812.58	1310.700
812.76	1433.578
812.94	1392.619
813.13	1382.379
813.31	1355.755
813.49	1409.002
813.68	1337.324
813.86	1349.611
814.04	1384.427
814.23	1314.796
814.41	1406.955
814.59	1376.235
814.78	1388.523
814.96	1335.276
815.14	1312.748
815.33	1417.194
815.51	1452.010
815.69	1263.597
815.87	1329.132
816.06	1441.770
816.24	1417.194
816.42	1277.932
816.61	1314.796
816.79	1411.050
816.97	1441.770
817.16	1359.851
817.34	1275.885
817.52	1398.763
817.70	1488.873
817.89	1388.523
818.07	1355.755
818.25	1310.700
818.44	1415.146
818.62	1359.851
818.80	1421.290
818.98	1314.796
819.17	1406.955
819.35	1388.523
819.53	1374.187
819.72	1411.050
819.90	1320.940
820.08	1355.755
820.26	1331.180
820.45	1343.468
820.63	1495.017
820.81	1333.228
820.99	1386.475
821.18	1388.523
821.36	1365.995
821.54	1413.098
821.73	1415.146
821.91	1339.372
822.09	1419.242
822.27	1474.538
822.46	1376.235
822.64	1308.652
822.82	1413.098
823.00	1404.907
823.19	1382.379
823.37	1447.914
823.55	1353.707
823.73	1370.091
823.91	1331.180
824.10	1435.626
824.28	1370.091
824.46	1337.324
824.64	1345.515
824.83	1423.338
825.01	1357.803
825.19	1355.755
825.37	1390.571
825.56	1357.803
825.74	1400.811
825.92	1402.859
826.10	1499.113
826.28	1413.098
826.47	1290.220
826.65	1409.002
826.83	1462.250
827.01	1306.604
827.19	1439.722
827.38	1464.298
827.56	1388.523
827.74	1376.235
827.92	1368.043
828.10	1376.235
828.29	1495.017
828.47	1314.796
828.65	1421.290
828.83	1310.700
829.01	1433.578
829.20	1386.475
829.38	1384.427
829.56	1390.571
829.74	1380.331
829.92	1302.508
830.10	1388.523
830.29	1400.811
830.47	1411.050
830.65	1333.228
830.83	1413.098
831.01	1370.091
831.20	1306.604
831.38	1382.379
831.56	1458.154
831.74	1443.818
831.92	1388.523
832.10	1347.563
832.29	1406.955
832.47	1322.988
832.65	1351.659
832.83	1449.962
833.01	1376.235
833.19	1320.940
833.37	1392.619
833.56	1361.899
833.74	1363.947
833.92	1284.076
834.10	1331.180
834.28	1380.331
834.46	1468.394
834.64	1382.379
834.83	1341.420
835.01	1488.873
835.19	1392.619
835.37	1411.050
835.55	1431.530
835.73	1376.235
835.91	1419.242
836.09	1411.050
836.28	1359.851
836.46	1302.508
836.64	1460.202
836.82	1343.468
837.00	1482.729
837.18	1409.002
837.36	1396.715
837.54	1392.619
837.72	1361.899
837.91	1363.947
838.09	1419.242
838.27	1447.914
838.45	1396.715
838.63	1365.995
838.81	1492.969
838.99	1454.058
839.17	1347.563
839.35	1421.290
839.53	1372.139
839.72	1417.194
839.90	1337.324
840.08	1304.556
840.26	1388.523
840.44	1427.434
840.62	1337.324
840.80	1449.962
840.98	1468.394
841.16	1386.475
841.34	1355.755
841.52	1474.538
841.70	1343.468
841.89	1351.659
842.07	1474.538
842.25	1421.290
842.43	1337.324
842.61	1439.722
842.79	1425.386
842.97	1343.468
843.15	1390.571
843.33	1380.331
843.51	1372.139
843.69	1316.844
843.87	1413.098
844.05	1372.139
844.23	1396.715
844.41	1314.796
844.59	1329.132
844.77	1435.626
844.95	1337.324
845.13	1386.475
845.31	1347.563
845.50	1411.050
845.68	1460.202
845.86	1447.914
846.04	1492.969
846.22	1433.578
846.40	1294.316
846.58	1347.563
846.76	1339.372
846.94	1365.995
847.12	1335.276
847.30	1415.146
847.48	1390.571
847.66	1419.242
847.84	1404.907
848.02	1398.763
848.20	1433.578
848.38	1374.187
848.56	1441.770
848.74	1423.338
848.92	1376.235
849.10	1404.907
849.28	1413.098
849.46	1468.394
849.64	1341.420
849.82	1363.947
850.00	1466.346
850.18	1474.538
850.36	1378.283
850.54	1415.146
850.72	1394.667
850.90	1392.619
851.08	1417.194
851.26	1439.722
851.44	1353.707
851.62	1365.995
851.80	1380.331
851.98	1423.338
852.16	1390.571
852.34	1400.811
852.52	1347.563
852.70	1384.427
852.87	1327.084
853.05	1423.338
853.23	1361.899
853.41	1470.442
853.59	1462.250
853.77	1458.154
853.95	1429.482
854.13	1386.475
854.31	1404.907
854.49	1386.475
854.67	1452.010
854.85	1361.899
855.03	1384.427
855.21	1427.434
855.39	1452.010
855.57	1353.707
855.75	1341.420
855.93	1351.659
856.11	1552.360
856.28	1380.331
856.46	1339.372
856.64	1435.626
856.82	1335.276
857.00	1409.002
857.18	1415.146
857.36	1480.681
857.54	1353.707
857.72	1359.851
857.90	1294.316
858.08	1433.578
858.26	1423.338
858.44	1349.611
858.61	1417.194
858.79	1474.538
858.97	1388.523
859.15	1411.050
859.33	1406.955
859.51	1431.530
859.69	1374.187
859.87	1372.139
860.05	1398.763
860.23	1331.180
860.40	1302.508
860.58	1447.914
860.76	1296.364
860.94	1404.907
861.12	1392.619
861.30	1359.851
861.48	1365.995
861.66	1376.235
861.84	1406.955
862.01	1439.722
862.19	1310.700
862.37	1404.907
862.55	1392.619
862.73	1390.571
862.91	1345.515
863.09	1331.180
863.27	1343.468
863.44	1378.283
863.62	1376.235
863.80	1431.530
863.98	1374.187
864.16	1394.667
864.34	1411.050
864.52	1441.770
864.69	1394.667
864.87	1361.899
865.05	1376.235
865.23	1314.796
865.41	1349.611
865.59	1269.741
865.76	1452.010
865.94	1345.515
866.12	1349.611
866.30	1386.475
866.48	1435.626
866.66	1339.372
866.83	1384.427
867.01	1388.523
867.19	1419.242
867.37	1396.715
867.55	1349.611
867.73	1495.017
867.90	1378.283
868.08	1466.346
868.26	1310.700
868.44	1368.043
868.62	1374.187
868.79	1445.866
868.97	1368.043
869.15	1302.508
869.33	1310.700
869.51	1423.338
869.69	1314.796
869.86	1423.338
870.04	1452.010
870.22	1376.235
870.40	1380.331
870.57	1363.947
870.75	1337.324
870.93	1394.667
871.11	1392.619
871.29	1314.796
871.46	1390.571
871.64	1298.412
871.82	1400.811
872.00	1445.866
872.18	1359.851
872.35	1431.530
872.53	1337.324
872.71	1392.619
872.89	1439.722
873.06	1368.043
873.24	1417.194
873.42	1388.523
873.60	1329.132
873.77	1435.626
873.95	1409.002
874.13	1433.578
874.31	1351.659
874.49	1370.091
874.66	1370.091
874.84	1386.475
875.02	1445.866
875.20	1380.331
875.37	1456.106
875.55	1343.468
875.73	1337.324
875.91	1417.194
876.08	1417.194
876.26	1357.803
876.44	1327.084
876.61	1380.331
876.79	1464.298
876.97	1368.043
877.15	1392.619
877.32	1306.604
877.50	1345.515
877.68	1417.194
877.86	1325.036
878.03	1480.681
878.21	1300.460
878.39	1325.036
878.56	1302.508
878.74	1318.892
878.92	1296.364
879.10	1423.338
879.27	1449.962
879.45	1484.777
879.63	1331.180
879.80	1409.002
879.98	1304.556
880.16	1382.379
880.34	1406.955
880.51	1402.859
880.69	1374.187
880.87	1345.515
881.04	1419.242
881.22	1413.098
881.40	1413.098
881.57	1409.002
881.75	1413.098
881.93	1386.475
882.10	1482.729
882.28	1413.098
882.46	1386.475
882.63	1445.866
882.81	1347.563
882.99	1316.844
883.16	1396.715
883.34	1447.914
883.52	1335.276
883.69	1421.290
883.87	1415.146
884.05	1374.187
884.22	1406.955
884.40	1343.468
884.58	1343.468
884.75	1376.235
884.93	1357.803
885.11	1365.995
885.28	1368.043
885.46	1339.372
885.64	1349.611
885.81	1398.763
885.99	1363.947
886.17	1380.331
886.34	1363.947
886.52	1486.825
886.70	1331.180
886.87	1423.338
887.05	1396.715
887.22	1349.611
887.40	1419.242
887.58	1409.002
887.75	1392.619
887.93	1400.811
888.11	1355.755
888.28	1380.331
888.46	1282.028
888.63	1392.619
888.81	1314.796
888.99	1419.242
889.16	1368.043
889.34	1292.268
889.51	1406.955
889.69	1368.043
889.87	1357.803
890.04	1378.283
890.22	1329.132
890.39	1265.645
890.57	1480.681
890.75	1368.043
890.92	1419.242
891.10	1396.715
891.27	1384.427
891.45	1413.098
891.63	1388.523
891.80	1396.715
891.98	1458.154
892.15	1331.180
892.33	1368.043
892.51	1460.202
892.68	1343.468
892.86	1380.331
893.03	1488.873
893.21	1396.715
893.38	1411.050
893.56	1464.298
893.74	1419.242
893.91	1341.420
894.09	1368.043
894.26	1468.394
894.44	1363.947
894.61	1372.139
894.79	1267.693
894.96	1347.563
895.14	1415.146
895.32	1441.770
895.49	1308.652
895.67	1359.851
895.84	1370.091
896.02	1349.611
896.19	1376.235
896.37	1411.050
896.54	1386.475
896.72	1402.859
896.89	1413.098
897.07	1439.722
897.25	1437.674
897.42	1421.290
897.60	1339.372
897.77	1376.235
897.95	1388.523
898.12	1376.235
898.30	1472.490
898.47	1365.995
898.65	1265.645
898.82	1357.803
899.00	1363.947
899.17	1380.331
899.35	1384.427
899.52	1411.050
899.70	1345.515
899.87	1472.490
900.05	1343.468
900.22	1363.947
900.40	1441.770
900.57	1443.818
900.75	1312.748
900.92	1355.755
901.10	1337.324
901.27	1365.995
901.45	1413.098
901.62	1402.859
901.80	1392.619
901.97	1390.571
902.15	1425.386
902.32	1456.106
902.50	1333.228
902.67	1359.851
902.85	1394.667
903.02	1423.338
903.20	1390.571
903.37	1335.276
903.54	1415.146
903.72	1417.194
903.89	1337.324
904.07	1357.803
904.24	1310.700
904.42	1322.988
904.59	1288.172
904.77	1382.379
904.94	1347.563
905.12	1384.427
905.29	1402.859
905.47	1435.626
905.64	1382.379
905.81	1327.084
905.99	1306.604
906.16	1437.674
906.34	1322.988
906.51	1441.770
906.69	1282.028
906.86	1398.763
907.03	1325.036
907.21	1269.741
907.38	1300.460
907.56	1421.290
907.73	1355.755
907.91	1337.324
908.08	1421.290
908.25	1445.866
908.43	1400.811
908.60	1425.386
908.78	1378.283
908.95	1413.098
909.13	1361.899
909.30	1345.515
909.47	1372.139
909.65	1417.194
909.82	1470.442
910.00	1368.043
910.17	1378.283
910.34	1433.578
910.52	1400.811
910.69	1294.316
910.87	1312.748
911.04	1279.980
911.21	1402.859
911.39	1368.043
911.56	1392.619
911.73	1462.250
911.91	1282.028
912.08	1400.811
912.26	1421.290
912.43	1476.585
912.60	1390.571
912.78	1357.803
912.95	1390.571
913.13	1406.955
913.30	1423.338
913.47	1349.611
913.65	1396.715
913.82	1372.139
913.99	1402.859
914.17	1384.427
914.34	1435.626
914.51	1437.674
914.69	1402.859
914.86	1478.633
915.03	1382.379
915.21	1390.571
915.38	1329.132
915.56	1435.626
915.73	1374.187
915.90	1335.276
916.08	1374.187
916.25	1431.530
916.42	1419.242
916.60	1402.859
916.77	1349.611
916.94	1361.899
917.12	1476.585
917.29	1402.859
917.46	1257.453
917.64	1429.482
917.81	1396.715
917.98	1322.988
918.16	1390.571
918.33	1380.331
918.50	1439.722
918.67	1378.283
918.85	1388.523
919.02	1353.707
919.19	1449.962
919.37	1427.434
919.54	1314.796
919.71	1423.338
919.89	1335.276
920.06	1429.482
920.23	1437.674
920.41	1423.338
920.58	1347.563
920.75	1368.043
920.92	1400.811
921.10	1341.420
921.27	1353.707
921.44	1370.091
921.62	1359.851
921.79	1505.257
921.96	1376.235
922.13	1464.298
922.31	1357.803
922.48	1333.228
922.65	1312.748
922.82	1306.604
923.00	1449.962
923.17	1392.619
923.34	1402.859
923.52	1363.947
923.69	1394.667
923.86	1449.962
924.03	1411.050
924.21	1327.084
924.38	1382.379
924.55	1347.563
924.72	1394.667
924.90	1345.515
925.07	1472.490
925.24	1411.050
925.41	1415.146
925.59	1388.523
925.76	1327.084
925.93	1343.468
926.10	1402.859
926.28	1353.707
926.45	1458.154
926.62	1320.940
926.79	1472.490
926.96	1365.995
927.14	1380.331
927.31	1296.364
927.48	1302.508
927.65	1423.338
927.83	1406.955
928.00	1411.050
928.17	1349.611
928.34	1271.789
928.51	1349.611
928.69	1308.652
928.86	1312.748
929.03	1421.290
929.20	1361.899
929.37	1361.899
929.55	1368.043
929.72	1322.988
929.89	1359.851
930.06	1400.811
930.23	1404.907
930.41	1433.578
930.58	1419.242
930.75	1372.139
930.92	1357.803
931.09	1288.172
931.27	1339.372
931.44	1376.235
931.61	1402.859
931.78	1339.372
931.95	1355.755
932.12	1308.652
932.30	1382.379
932.47	1439.722
932.64	1466.346
932.81	1413.098
932.98	1376.235
933.16	1365.995
933.33	1384.427
933.50	1343.468
933.67	1443.818
933.84	1294.316
934.01	1257.453
934.18	1452.010
934.36	1310.700
934.53	1310.700
934.70	1351.659
934.87	1339.372
935.04	1277.932
935.21	1269.741
935.38	1263.597
935.56	1363.947
935.73	1378.283
935.90	1378.283
936.07	1404.907
936.24	1380.331
936.41	1368.043
936.58	1400.811
936.76	1361.899
936.93	1421.290
937.10	1310.700
937.27	1411.050
937.44	1316.844
937.61	1292.268
937.78	1443.818
937.95	1431.530
938.13	1331.180
938.30	1292.268
938.47	1400.811
938.64	1353.707
938.81	1310.700
938.98	1298.412
939.15	1382.379
939.32	1288.172
939.49	1386.475
939.66	1327.084
939.84	1409.002
940.01	1335.276
940.18	1363.947
940.35	1423.338
940.52	1314.796
940.69	1398.763
940.86	1425.386
941.03	1374.187
941.20	1423.338
941.37	1382.379
941.54	1327.084
941.71	1355.755
941.89	1384.427
942.06	1417.194
942.23	1445.866
942.40	1382.379
942.57	1370.091
942.74	1333.228
942.91	1361.899
943.08	1361.899
943.25	1339.372
943.42	1374.187
943.59	1363.947
943.76	1351.659
943.93	1355.755
944.10	1292.268
944.27	1394.667
944.44	1349.611
944.61	1331.180
944.79	1404.907
944.96	1357.803
945.13	1376.235
945.30	1290.220
945.47	1341.420
945.64	1314.796
945.81	1368.043
945.98	1376.235
946.15	1312.748
946.32	1282.028
946.49	1452.010
946.66	1380.331
946.83	1353.707
947.00	1409.002
947.17	1402.859
947.34	1343.468
947.51	1349.611
947.68	1365.995
947.85	1341.420
948.02	1437.674
948.19	1365.995
948.36	1406.955
948.53	1339.372
948.70	1368.043
948.87	1327.084
949.04	1298.412
949.21	1331.180
949.38	1378.283
949.55	1417.194
949.72	1322.988
949.89	1382.379
950.06	1370.091
950.23	1325.036
950.40	1355.755
950.57	1310.700
950.74	1365.995
950.91	1335.276
951.08	1314.796
951.25	1325.036
951.42	1310.700
951.59	1286.124
951.76	1374.187
951.93	1286.124
952.10	1306.604
952.27	1406.955
952.44	1351.659
952.61	1394.667
952.77	1341.420
952.94	1392.619
953.11	1374.187
953.28	1335.276
953.45	1322.988
953.62	1374.187
953.79	1292.268
953.96	1441.770
954.13	1337.324
954.30	1347.563
954.47	1269.741
954.64	1288.172
954.81	1394.667
954.98	1370.091
955.15	1339.372
955.32	1325.036
955.49	1327.084
955.65	1380.331
955.82	1396.715
955.99	1335.276
956.16	1378.283
956.33	1372.139
956.50	1302.508
956.67	1419.242
956.84	1437.674
957.01	1316.844
957.18	1345.515
957.35	1368.043
957.52	1370.091
957.68	1349.611
957.85	1320.940
958.02	1443.818
958.19	1320.940
958.36	1347.563
958.53	1398.763
958.70	1341.420
958.87	1290.220
959.04	1402.859
959.21	1353.707
959.37	1318.892
959.54	1306.604
959.71	1294.316
959.88	1251.309
960.05	1339.372
960.22	1277.932
960.39	1415.146
960.56	1327.084
960.72	1300.460
960.89	1484.777
961.06	1361.899
961.23	1409.002
961.40	1368.043
961.57	1400.811
961.74	1322.988
961.90	1357.803
962.07	1363.947
962.24	1316.844
962.41	1384.427
962.58	1368.043
962.75	1335.276
962.92	1337.324
963.08	1406.955
963.25	1310.700
963.42	1382.379
963.59	1290.220
963.76	1298.412
963.93	1431.530
964.10	1329.132
964.26	1400.811
964.43	1396.715
964.60	1337.324
964.77	1337.324
964.94	1304.556
965.10	1286.124
965.27	1359.851
965.44	1322.988
965.61	1339.372
965.78	1400.811
965.95	1427.434
966.11	1329.132
966.28	1435.626
966.45	1449.962
966.62	1376.235
966.79	1425.386
966.95	1275.885
967.12	1372.139
967.29	1314.796
967.46	1357.803
967.63	1333.228
967.79	1347.563
967.96	1316.844
968.13	1296.364
968.30	1351.659
968.47	1327.084
968.63	1322.988
968.80	1333.228
968.97	1337.324
969.14	1304.556
969.31	1304.556
969.47	1267.693
969.64	1378.283
969.81	1345.515
969.98	1409.002
970.14	1284.076
970.31	1316.844
970.48	1355.755
970.65	1343.468
970.81	1396.715
970.98	1365.995
971.15	1374.187
971.32	1306.604
971.48	1343.468
971.65	1386.475
971.82	1376.235
971.99	1353.707
972.15	1322.988
972.32	1363.947
972.49	1337.324
972.66	1378.283
972.82	1368.043
972.99	1374.187
973.16	1417.194
973.33	1325.036
973.49	1470.442
973.66	1374.187
973.83	1415.146
974.00	1300.460
974.16	1288.172
974.33	1468.394
974.50	1349.611
974.67	1406.955
974.83	1298.412
975.00	1404.907
975.17	1382.379
975.33	1314.796
975.50	1423.338
975.67	1327.084
975.84	1304.556
976.00	1363.947
976.17	1394.667
976.34	1339.372
976.50	1433.578
976.67	1345.515
976.84	1417.194
977.00	1329.132
977.17	1376.235
977.34	1458.154
977.50	1411.050
977.67	1355.755
977.84	1441.770
978.01	1396.715
978.17	1357.803
978.34	1343.468
978.51	1368.043
978.67	1290.220
978.84	1415.146
979.01	1470.442
979.17	1265.645
979.34	1417.194
979.51	1417.194
979.67	1359.851
979.84	1411.050
980.01	1386.475
980.17	1398.763
980.34	1343.468
980.51	1292.268
980.67	1363.947
980.84	1329.132
981.01	1404.907
981.17	1325.036
981.34	1427.434
981.50	1349.611
981.67	1341.420
981.84	1398.763
982.00	1466.346
982.17	1411.050
982.34	1310.700
982.50	1298.412
982.67	1394.667
982.84	1392.619
983.00	1329.132
983.17	1386.475
983.33	1339.372
983.50	1374.187
983.67	1378.283
983.83	1337.324
984.00	1409.002
984.17	1445.866
984.33	1452.010
984.50	1365.995
984.66	1449.962
984.83	1380.331
985.00	1394.667
985.16	1503.209
985.33	1415.146
985.49	1419.242
985.66	1421.290
985.83	1353.707
985.99	1302.508
986.16	1374.187
986.32	1310.700
986.49	1351.659
986.66	1388.523
986.82	1363.947
986.99	1388.523
987.15	1310.700
987.32	1335.276
987.49	1386.475
987.65	1378.283
987.82	1435.626
987.98	1357.803
988.15	1390.571
988.31	1386.475
988.48	1376.235
988.65	1404.907
988.81	1327.084
988.98	1392.619
989.14	1355.755
989.31	1347.563
989.47	1392.619
989.64	1409.002
989.80	1357.803
989.97	1380.331
990.14	1396.715
990.30	1404.907
990.47	1415.146
990.63	1445.866
990.80	1257.453
990.96	1484.777
991.13	1456.106
991.29	1404.907
991.46	1365.995
991.62	1423.338
991.79	1312.748
991.95	1398.763
992.12	1449.962
992.29	1394.667
992.45	1325.036
992.62	1460.202
992.78	1411.050
992.95	1355.755
993.11	1368.043
993.28	1390.571
993.44	1341.420
993.61	1357.803
993.77	1400.811
993.94	1470.442
994.10	1368.043
994.27	1441.770
994.43	1329.132
994.60	1441.770
994.76	1390.571
994.93	1382.379
995.09	1472.490
995.26	1374.187
995.42	1378.283
995.59	1437.674
995.75	1359.851
995.92	1445.866
996.08	1458.154
996.25	1363.947
996.41	1425.386
996.58	1398.763
996.74	1380.331
996.91	1433.578
997.07	1396.715
997.23	1396.715
997.40	1421.290
997.56	1431.530
997.73	1454.058
997.89	1447.914
998.06	1400.811
998.22	1474.538
998.39	1404.907
998.55	1361.899
998.72	1411.050
998.88	1388.523
999.05	1368.043
999.21	1409.002
999.37	1423.338
999.54	1462.250
999.70	1345.515
999.87	1409.002
1000.03	1363.947
1000.20	1396.715
1000.36	1470.442
1000.52	1378.283
1000.69	1398.763
1000.85	1394.667
1001.02	1472.490
1001.18	1341.420
1001.35	1361.899
1001.51	1413.098
1001.67	1488.873
1001.84	1421.290
1002.00	1374.187
1002.17	1429.482
1002.33	1402.859
1002.50	1374.187
1002.66	1392.619
1002.82	1388.523
1002.99	1425.386
1003.15	1413.098
1003.32	1349.611
1003.48	1392.619
1003.64	1464.298
1003.81	1478.633
1003.97	1433.578
1004.14	1347.563
1004.30	1339.372
1004.46	1365.995
1004.63	1404.907
1004.79	1361.899
1004.95	1480.681
1005.12	1396.715
1005.28	1486.825
1005.45	1400.811
1005.61	1349.611
1005.77	1413.098
1005.94	1378.283
1006.10	1331.180
1006.26	1435.626
1006.43	1376.235
1006.59	1445.866
1006.76	1468.394
1006.92	1394.667
1007.08	1392.619
1007.25	1335.276
1007.41	1449.962
1007.57	1417.194
1007.74	1445.866
1007.90	1472.490
1008.06	1384.427
1008.23	1368.043
1008.39	1372.139
1008.55	1400.811
1008.72	1433.578
1008.88	1386.475
1009.04	1363.947
1009.21	1386.475
1009.37	1415.146
1009.53	1363.947
1009.70	1363.947
1009.86	1359.851
1010.02	1382.379
1010.19	1378.283
1010.35	1460.202
1010.51	1306.604
1010.68	1384.427
1010.84	1363.947
1011.00	1396.715
1011.17	1382.379
1011.33	1327.084
1011.49	1435.626
1011.66	1394.667
1011.82	1425.386
1011.98	1443.818
1012.14	1388.523
1012.31	1441.770
1012.47	1351.659
1012.63	1411.050
1012.80	1376.235
1012.96	1402.859
1013.12	1398.763
1013.29	1423.338
1013.45	1406.955
1013.61	1365.995
1013.77	1363.947
1013.94	1345.515
1014.10	1441.770
1014.26	1286.124
1014.43	1417.194
1014.59	1419.242
1014.75	1392.619
1014.91	1353.707
1015.08	1431.530
1015.24	1427.434
1015.40	1441.770
1015.56	1470.442
1015.73	1325.036
1015.89	1345.515
1016.05	1378.283
1016.21	1306.604
1016.38	1470.442
1016.54	1492.969
1016.70	1402.859
1016.86	1466.346
1017.03	1452.010
1017.19	1396.715
1017.35	1380.331
1017.51	1392.619
1017.68	1331.180
1017.84	1409.002
1018.00	1322.988
1018.16	1394.667
1018.33	1380.331
1018.49	1396.715
1018.65	1429.482
1018.81	1398.763
1018.97	1460.202
1019.14	1392.619
1019.30	1433.578
1019.46	1476.585
1019.62	1480.681
1019.79	1388.523
1019.95	1327.084
1020.11	1378.283
1020.27	1398.763
1020.43	1400.811
1020.60	1417.194
1020.76	1368.043
1020.92	1329.132
1021.08	1419.242
1021.24	1386.475
1021.41	1400.811
1021.57	1374.187
1021.73	1347.563
1021.89	1382.379
1022.05	1445.866
1022.21	1300.460
1022.38	1294.316
1022.54	1351.659
1022.70	1376.235
1022.86	1296.364
1023.02	1312.748
1023.19	1357.803
1023.35	1417.194
1023.51	1394.667
1023.67	1310.700
1023.83	1462.250
1023.99	1363.947
1024.16	1423.338
1024.32	1347.563
1024.48	1427.434
1024.64	1415.146
1024.80	1433.578
1024.96	1368.043
1025.12	1406.955
1025.29	1372.139
1025.45	1359.851
1025.61	1388.523
1025.77	1417.194
1025.93	1288.172
1026.09	1419.242
1026.26	1335.276
1026.42	1361.899
1026.58	1359.851
1026.74	1370.091
1026.90	1277.932
1027.06	1402.859
1027.22	1400.811
1027.38	1380.331
1027.55	1386.475
1027.71	1318.892
1027.87	1318.892
1028.03	1386.475
1028.19	1343.468
1028.35	1390.571
1028.51	1304.556
1028.67	1355.755
1028.83	1421.290
1029.00	1392.619
1029.16	1261.549
1029.32	1392.619
1029.48	1337.324
1029.64	1290.220
1029.80	1345.515
1029.96	1439.722
1030.12	1357.803
1030.28	1374.187
1030.44	1337.324
1030.61	1423.338
1030.77	1359.851
1030.93	1406.955
1031.09	1392.619
1031.25	1382.379
1031.41	1349.611
1031.57	1322.988
1031.73	1413.098
1031.89	1277.932
1032.05	1290.220
1032.21	1382.379
1032.37	1316.844
1032.53	1290.220
1032.69	1353.707
1032.86	1380.331
1033.02	1325.036
1033.18	1322.988
1033.34	1320.940
1033.50	1452.010
1033.66	1316.844
1033.82	1304.556
1033.98	1441.770
1034.14	1378.283
1034.30	1302.508
1034.46	1322.988
1034.62	1349.611
1034.78	1361.899
1034.94	1411.050
1035.10	1425.386
1035.26	1345.515
1035.42	1275.885
1035.58	1370.091
1035.74	1322.988
1035.90	1349.611
1036.06	1337.324
1036.22	1384.427
1036.38	1384.427
1036.54	1329.132
1036.70	1351.659
1036.86	1368.043
1037.02	1290.220
1037.18	1382.379
1037.34	1376.235
1037.50	1341.420
1037.66	1415.146
1037.82	1263.597
1037.98	1347.563
1038.14	1374.187
1038.30	1333.228
1038.46	1255.405
1038.62	1384.427
1038.78	1368.043
1038.94	1308.652
1039.10	1363.947
1039.26	1241.069
1039.42	1368.043
1039.58	1345.515
1039.74	1329.132
1039.90	1398.763
1040.06	1316.844
>>>>>End Spectral Data<<<<<
