SpectraSuite Data File
++++++++++++++++++++++++++++++++++++
Date: Wed Jan 25 17:54:23 EET 2017
User: TheoProf
Spectrometer Serial Number: USB4C02475
Spectrometer Channel: 0
Integration Time (usec): 64136
Spectra Averaged: 1
Boxcar Smoothing: 0
Correct for Electrical Dark: No
Strobe/Lamp Enabled: No
Correct for Detector Non-linearity: No
Correct for Stray Light: No
Number of Pixels in Spectrum: 3648
>>>>>Begin Spectral Data<<<<<
344.91	1222.637
345.13	1222.637
345.35	1222.637
345.57	1218.541
345.79	1234.925
346.00	1560.552
346.22	1464.298
346.44	1363.947
346.66	1492.969
346.87	1351.659
347.09	1382.379
347.31	1425.386
347.53	1538.025
347.74	1488.873
347.96	1447.914
348.18	1421.290
348.40	1337.324
348.61	1433.578
348.83	1421.290
349.05	1503.209
349.27	1456.106
349.48	1456.106
349.70	1468.394
349.92	1458.154
350.14	1439.722
350.35	1466.346
350.57	1548.264
350.79	1495.017
351.01	1613.799
351.22	1449.962
351.44	1513.449
351.66	1331.180
351.87	1511.401
352.09	1478.633
352.31	1562.600
352.53	1538.025
352.74	1529.833
352.96	1497.065
353.18	1353.707
353.40	1447.914
353.61	1499.113
353.83	1476.585
354.05	1464.298
354.26	1499.113
354.48	1488.873
354.70	1431.530
354.92	1525.737
355.13	1478.633
355.35	1544.168
355.57	1517.545
355.78	1474.538
356.00	1519.593
356.22	1419.242
356.44	1591.272
356.65	1546.216
356.87	1480.681
357.09	1531.881
357.30	1556.456
357.52	1515.497
357.74	1558.504
357.95	1404.907
358.17	1474.538
358.39	1501.161
358.60	1433.578
358.82	1433.578
359.04	1454.058
359.26	1505.257
359.47	1470.442
359.69	1619.943
359.91	1484.777
360.12	1527.785
360.34	1482.729
360.56	1396.715
360.77	1384.427
360.99	1533.929
361.21	1478.633
361.42	1521.641
361.64	1468.394
361.86	1554.408
362.07	1574.888
362.29	1499.113
362.51	1529.833
362.72	1478.633
362.94	1474.538
363.16	1480.681
363.37	1566.696
363.59	1482.729
363.81	1437.674
364.02	1529.833
364.24	1505.257
364.46	1490.921
364.67	1470.442
364.89	1552.360
365.11	1515.497
365.32	1503.209
365.54	1521.641
365.76	1572.840
365.97	1511.401
366.19	1437.674
366.41	1433.578
366.62	1505.257
366.84	1396.715
367.05	1535.977
367.27	1449.962
367.49	1374.187
367.70	1476.585
367.92	1486.825
368.14	1523.689
368.35	1533.929
368.57	1505.257
368.79	1511.401
369.00	1480.681
369.22	1452.010
369.43	1529.833
369.65	1544.168
369.87	1464.298
370.08	1525.737
370.30	1423.338
370.51	1413.098
370.73	1478.633
370.95	1513.449
371.16	1452.010
371.38	1470.442
371.60	1445.866
371.81	1513.449
372.03	1533.929
372.24	1425.386
372.46	1470.442
372.68	1423.338
372.89	1476.585
373.11	1542.120
373.32	1445.866
373.54	1548.264
373.76	1462.250
373.97	1429.482
374.19	1587.176
374.40	1589.224
374.62	1523.689
374.84	1540.072
375.05	1460.202
375.27	1597.416
375.48	1437.674
375.70	1419.242
375.92	1474.538
376.13	1480.681
376.35	1544.168
376.56	1437.674
376.78	1464.298
376.99	1501.161
377.21	1566.696
377.43	1437.674
377.64	1544.168
377.86	1466.346
378.07	1394.667
378.29	1538.025
378.51	1531.881
378.72	1507.305
378.94	1474.538
379.15	1460.202
379.37	1513.449
379.58	1484.777
379.80	1423.338
380.01	1531.881
380.23	1482.729
380.45	1521.641
380.66	1593.320
380.88	1449.962
381.09	1597.416
381.31	1527.785
381.52	1513.449
381.74	1495.017
381.95	1517.545
382.17	1521.641
382.39	1544.168
382.60	1499.113
382.82	1441.770
383.03	1468.394
383.25	1517.545
383.46	1529.833
383.68	1503.209
383.89	1628.135
384.11	1476.585
384.32	1433.578
384.54	1538.025
384.76	1497.065
384.97	1495.017
385.19	1456.106
385.40	1560.552
385.62	1550.312
385.83	1548.264
386.05	1452.010
386.26	1460.202
386.48	1515.497
386.69	1525.737
386.91	1435.626
387.12	1523.689
387.34	1538.025
387.55	1419.242
387.77	1488.873
387.98	1544.168
388.20	1585.128
388.41	1519.593
388.63	1486.825
388.84	1476.585
389.06	1544.168
389.27	1556.456
389.49	1503.209
389.70	1482.729
389.92	1523.689
390.13	1509.353
390.35	1490.921
390.56	1499.113
390.78	1552.360
390.99	1490.921
391.21	1535.977
391.42	1566.696
391.64	1486.825
391.85	1421.290
392.07	1419.242
392.28	1474.538
392.50	1591.272
392.71	1509.353
392.93	1464.298
393.14	1626.087
393.36	1621.991
393.57	1570.792
393.79	1490.921
394.00	1470.442
394.22	1482.729
394.43	1533.929
394.65	1589.224
394.86	1576.936
395.08	1499.113
395.29	1449.962
395.50	1593.320
395.72	1441.770
395.93	1679.334
396.15	1599.464
396.36	1535.977
396.58	1624.039
396.79	1525.737
397.01	1480.681
397.22	1515.497
397.44	1599.464
397.65	1525.737
397.87	1390.571
398.08	1607.655
398.29	1521.641
398.51	1591.272
398.72	1550.312
398.94	1621.991
399.15	1597.416
399.37	1609.703
399.58	1499.113
399.80	1533.929
400.01	1484.777
400.22	1603.560
400.44	1621.991
400.65	1683.430
400.87	1601.512
401.08	1658.855
401.30	1509.353
401.51	1519.593
401.72	1662.951
401.94	1515.497
402.15	1644.519
402.37	1550.312
402.58	1564.648
402.80	1529.833
403.01	1564.648
403.22	1562.600
403.44	1628.135
403.65	1527.785
403.87	1587.176
404.08	1710.054
404.30	1644.519
404.51	1609.703
404.72	1630.183
404.94	1642.471
405.15	1693.670
405.37	1613.799
405.58	1564.648
405.79	1595.368
406.01	1656.807
406.22	1591.272
406.44	1576.936
406.65	1708.006
406.86	1621.991
407.08	1558.504
407.29	1650.663
407.51	1626.087
407.72	1728.486
407.93	1664.999
408.15	1638.375
408.36	1644.519
408.58	1683.430
408.79	1648.615
409.00	1667.047
409.22	1718.246
409.43	1617.895
409.64	1695.718
409.86	1693.670
410.07	1693.670
410.29	1708.006
410.50	1671.142
410.71	1701.862
410.93	1724.390
411.14	1726.438
411.35	1697.766
411.57	1734.630
411.78	1736.678
412.00	1648.615
412.21	1777.637
412.42	1712.102
412.64	1716.198
412.85	1634.279
413.06	1810.404
413.28	1699.814
413.49	1753.061
413.70	1748.965
413.92	1671.142
414.13	1585.128
414.34	1699.814
414.56	1753.061
414.77	1732.582
414.98	1753.061
415.20	1728.486
415.41	1757.157
415.63	1777.637
415.84	1781.733
416.05	1781.733
416.27	1804.260
416.48	1810.404
416.69	1761.253
416.91	1789.925
417.12	1683.430
417.33	1816.548
417.55	1748.965
417.76	1820.644
417.97	1773.541
418.19	1820.644
418.40	1744.869
418.61	1826.788
418.83	1820.644
419.04	1794.021
419.25	1859.556
419.46	1800.165
419.68	1734.630
419.89	1789.925
420.10	1820.644
420.32	1853.412
420.53	1826.788
420.74	1873.891
420.96	1814.500
421.17	1822.692
421.38	1892.323
421.60	1839.076
421.81	1845.220
422.02	1863.652
422.23	1871.843
422.45	1873.891
422.66	1808.356
422.87	1908.707
423.09	1914.851
423.30	1812.452
423.51	1896.419
423.73	1781.733
423.94	1918.947
424.15	1830.884
424.36	1959.906
424.58	1945.570
424.79	1974.242
425.00	1918.947
425.22	1908.707
425.43	1886.179
425.64	1912.803
425.85	1912.803
426.07	2035.681
426.28	1978.338
426.49	1923.043
426.71	2086.880
426.92	2037.729
427.13	1980.386
427.34	2041.825
427.56	2070.496
427.77	1914.851
427.98	1912.803
428.19	1918.947
428.41	1949.666
428.62	1972.194
428.83	2086.880
429.04	2023.393
429.26	2074.592
429.47	1990.626
429.68	2043.873
429.89	2009.057
430.11	2142.175
430.32	2070.496
430.53	2150.367
430.74	2019.297
430.96	2086.880
431.17	2023.393
431.38	2064.352
431.59	2072.544
431.81	2162.655
432.02	2138.079
432.23	2256.862
432.44	2148.319
432.66	2142.175
432.87	2113.504
433.08	2242.526
433.29	2176.991
433.51	2174.943
433.72	2211.806
433.93	2162.655
434.14	2195.422
434.35	2269.149
434.57	2297.821
434.78	2211.806
434.99	2263.005
435.20	2394.075
435.42	2338.780
435.63	2432.987
435.84	2537.433
436.05	2453.467
436.26	2461.658
436.48	2445.275
436.69	2308.061
436.90	2408.411
437.11	2385.884
437.32	2322.397
437.54	2318.301
437.75	2344.924
437.96	2435.035
438.17	2269.149
438.38	2260.958
438.60	2428.891
438.81	2346.972
439.02	2383.836
439.23	2371.548
439.44	2373.596
439.66	2435.035
439.87	2385.884
440.08	2277.341
440.29	2400.219
440.50	2381.788
440.72	2611.160
440.93	2447.323
441.14	2424.795
441.35	2418.651
441.56	2480.090
441.77	2541.529
441.99	2559.961
442.20	2453.467
442.41	2471.898
442.62	2494.426
442.83	2541.529
443.04	2564.057
443.26	2594.776
443.47	2711.511
443.68	2531.289
443.89	2523.098
444.10	2504.666
444.31	2588.632
444.53	2592.728
444.74	2609.112
444.95	2494.426
445.16	2596.824
445.37	2652.120
445.58	2641.880
445.80	2645.976
446.01	2605.016
446.22	2559.961
446.43	2582.489
446.64	2713.559
446.85	2670.551
447.06	2738.134
447.28	2725.846
447.49	2590.680
447.70	2629.592
447.91	2707.415
448.12	2762.710
448.33	2809.813
448.54	2684.887
448.76	2787.285
448.97	2815.957
449.18	2668.503
449.39	2699.223
449.60	2754.518
449.81	2740.182
450.02	2801.621
450.23	2887.636
450.45	2953.171
450.66	2973.651
450.87	2920.403
451.08	2899.924
451.29	2871.252
451.50	2914.260
451.71	2983.890
451.92	3098.577
452.13	2926.547
452.35	2975.699
452.56	2996.178
452.77	2867.156
452.98	2838.485
453.19	2947.027
453.40	2944.979
453.61	2918.355
453.82	2895.828
454.03	2963.411
454.25	2975.699
454.46	2899.924
454.67	3055.569
454.88	3293.134
455.09	3188.687
455.30	3092.433
455.51	3100.625
455.72	3057.617
455.93	2963.411
456.14	3110.865
456.35	3203.023
456.56	3026.898
456.78	3123.152
456.99	3096.529
457.20	3207.119
457.41	3211.215
457.62	3364.813
457.83	3223.503
458.04	3313.613
458.25	3373.005
458.46	3360.717
458.67	3504.075
458.88	3293.134
459.09	3379.148
459.30	3305.422
459.51	3332.045
459.73	3270.606
459.94	3497.931
460.15	3348.429
460.36	3436.492
460.57	3647.432
460.78	3633.097
460.99	3708.871
461.20	3717.063
461.41	3719.111
461.62	3606.473
461.83	3782.598
462.04	3766.215
462.25	3715.015
462.46	3583.945
462.67	3784.646
462.88	3690.440
463.09	3735.495
463.30	3815.366
463.51	3747.783
463.72	3848.133
463.93	3813.318
464.15	3792.838
464.36	4011.971
464.57	3954.628
464.78	4145.089
464.99	4274.111
465.20	4114.369
465.41	4028.355
465.62	4224.960
465.83	4198.336
466.04	3975.107
466.25	4052.930
466.46	4044.738
466.67	4124.609
466.88	4220.864
467.09	4317.118
467.30	4415.421
467.51	4419.517
467.72	4304.830
467.93	4136.897
468.14	4353.982
468.35	4456.380
468.56	4495.291
468.77	4523.963
468.98	4644.793
469.19	4655.033
469.40	4599.738
469.61	4614.074
469.82	4626.361
470.03	4761.527
470.24	4677.561
470.45	4997.044
470.66	4904.885
470.87	4978.612
471.08	4855.734
471.29	4812.727
471.50	5074.867
471.71	4960.180
471.92	5064.627
472.13	5091.250
472.34	4984.756
472.55	5232.560
472.76	5001.140
472.97	5210.032
473.18	5212.080
473.39	5398.446
473.60	5504.940
473.81	5623.722
474.01	5547.947
474.22	5574.571
474.43	5572.523
474.64	5549.995
474.85	5703.593
475.06	5767.080
475.27	5771.176
475.48	5830.567
475.69	5900.198
475.90	5805.991
476.11	5814.183
476.32	5799.848
476.53	5990.309
476.74	5928.870
476.95	5975.973
477.16	6176.674
477.37	6043.556
477.58	6250.401
477.79	6195.105
478.00	6293.408
478.21	6397.854
478.41	6401.950
478.62	6578.076
478.83	6494.109
479.04	6471.581
479.25	6506.397
479.46	6567.836
479.67	6533.020
479.88	6762.393
480.09	6752.153
480.30	6881.175
480.51	7036.821
480.72	7135.123
480.93	7358.352
481.14	7464.846
481.34	7608.204
481.55	7438.222
481.76	7610.252
481.97	7503.758
482.18	7581.580
482.39	7710.602
482.60	7634.828
482.81	7542.669
483.02	7481.230
483.23	7675.787
483.44	7698.315
483.65	7753.610
483.85	7765.898
484.06	7931.783
484.27	8040.325
484.48	7892.872
484.69	7991.174
484.90	7907.207
485.11	8005.510
485.32	8064.901
485.53	8181.635
485.73	8437.631
485.94	8411.008
486.15	8589.181
486.36	8511.358
486.57	8775.546
486.78	8816.505
486.99	9009.015
487.20	9330.546
487.41	9437.040
487.61	9344.881
487.82	9148.276
488.03	9275.250
488.24	9181.044
488.45	9109.365
488.66	9273.202
488.87	9385.841
489.08	9305.970
489.28	9324.402
489.49	9541.486
489.70	9660.269
489.91	9656.173
490.12	9770.859
490.33	9754.475
490.54	9621.357
490.74	9578.350
490.95	9512.815
491.16	9791.339
491.37	9658.221
491.58	9846.634
491.79	9793.387
492.00	9908.073
492.20	9969.512
492.41	10114.918
492.62	10270.563
492.83	10202.980
493.04	10045.287
493.25	10319.715
493.45	9983.848
493.66	10547.039
493.87	10753.884
494.08	10968.921
494.29	10805.083
494.50	10975.065
494.70	11083.607
494.91	10661.725
495.12	10467.168
495.33	10377.058
495.54	10592.094
495.75	10551.135
495.95	10461.024
496.16	10657.629
496.37	10911.578
496.58	10786.651
496.79	10940.249
496.99	10841.947
497.20	10780.508
497.41	10864.474
497.62	11022.168
497.83	11063.127
498.04	11030.360
498.24	10960.729
498.45	11026.264
498.66	11003.736
498.87	11046.743
499.08	11349.843
499.28	11358.035
499.49	11753.293
499.70	11636.558
499.91	12064.584
500.12	11956.042
500.32	11919.178
500.53	11554.640
500.74	11829.068
500.95	11513.680
501.15	11810.636
501.36	11648.846
501.57	11714.381
501.78	11654.990
501.99	11542.352
502.19	11421.522
502.40	11452.241
502.61	11757.389
502.82	11827.020
503.02	11976.521
503.23	12218.182
503.44	12519.233
503.65	13086.520
503.86	12975.930
504.06	13117.240
504.27	12932.923
504.48	12674.879
504.69	12595.008
504.89	12613.440
505.10	12298.052
505.31	12439.362
505.52	12390.211
505.72	12185.414
505.93	12201.798
506.14	12371.779
506.35	12803.901
506.55	12840.764
506.76	12762.941
506.97	12807.997
507.18	13041.465
507.38	12939.067
507.59	13088.568
507.80	13291.317
508.01	13143.863
508.21	13705.007
508.42	13582.129
508.63	13727.535
508.84	13823.789
509.04	13518.642
509.25	13424.435
509.46	13678.383
509.67	13631.280
509.87	13625.136
510.08	13664.048
510.29	13725.487
510.49	13831.981
510.70	13932.331
510.91	14522.146
511.12	14509.859
511.32	14448.420
511.53	14552.866
511.74	14681.888
511.94	14806.814
512.15	14876.445
512.36	15054.618
512.57	15482.644
512.77	14927.644
512.98	15525.651
513.19	15339.286
513.39	15421.205
513.60	15001.371
513.81	14964.508
514.01	14602.017
514.22	14718.751
514.43	14436.132
514.64	14294.822
514.84	14376.741
515.05	14831.390
515.26	14905.117
515.46	15216.408
515.67	15265.559
515.88	15425.301
516.08	15300.375
516.29	15134.489
516.50	14991.131
516.70	15001.371
516.91	15200.024
517.12	15560.467
517.32	15654.673
517.53	15580.946
517.74	15335.190
517.95	15652.625
518.15	15646.481
518.36	15550.227
518.57	16086.795
518.77	15808.271
518.98	15826.702
519.19	15734.544
519.39	15724.304
519.60	15599.378
519.80	16174.857
520.01	16101.130
520.22	16449.285
520.42	16344.839
520.63	16486.148
520.84	16457.477
521.04	16756.480
521.25	16965.373
521.46	17610.483
521.66	17370.871
521.87	17219.321
522.08	16733.953
522.28	16563.971
522.49	16969.469
522.70	17022.716
522.90	17192.698
523.11	17436.406
523.31	17073.915
523.52	17153.786
523.73	16832.255
523.93	17198.842
524.14	17032.956
524.35	17284.856
524.55	17094.395
524.76	17118.971
524.97	17118.971
525.17	16883.454
525.38	17053.436
525.58	17256.185
525.79	17516.277
526.00	17147.642
526.20	17020.668
526.41	16916.222
526.61	17293.048
526.82	17094.395
527.03	16733.953
527.23	17239.801
527.44	17291.000
527.64	17702.642
527.85	17667.826
528.06	17520.373
528.26	17411.830
528.47	17522.421
528.68	17487.605
528.88	17796.848
529.09	17932.014
529.29	18013.933
529.50	18147.051
529.70	18611.940
529.91	18923.231
530.12	19082.973
530.32	19185.371
530.53	19308.249
530.73	18898.656
530.94	18712.290
531.15	18519.781
531.35	18329.320
531.56	18951.903
531.76	19341.017
531.97	19453.655
532.17	19822.290
532.38	20209.356
532.59	19834.577
532.79	19633.876
533.00	19447.511
533.20	19625.685
533.41	19361.497
533.61	19492.567
533.82	19545.814
534.03	19334.873
534.23	19400.408
534.44	19125.980
534.64	19306.201
534.85	19584.725
535.05	19683.028
535.26	19236.570
535.46	19424.984
535.67	19494.615
535.88	19164.892
536.08	19371.736
536.29	19289.818
536.49	19343.065
536.70	19406.552
536.90	19617.493
537.11	19398.360
537.31	18804.449
537.52	18890.464
537.72	19068.637
537.93	19695.315
538.13	19719.891
538.34	19326.681
538.55	19611.349
538.75	19781.330
538.96	19967.695
539.16	20360.905
539.37	20408.009
539.57	20510.407
539.78	20362.953
539.98	20438.728
540.19	20242.123
540.39	20831.938
540.60	20539.079
540.80	20688.580
541.01	20954.816
541.21	21323.451
541.42	21438.137
541.62	21968.561
541.83	21604.022
542.03	21608.118
542.24	21544.631
542.44	22189.741
542.65	22353.579
542.85	22562.472
543.06	22965.922
543.26	22736.549
543.47	22945.442
543.67	22709.925
543.88	22709.925
544.08	22793.892
544.29	23250.589
544.49	23287.453
544.70	23369.371
544.90	22845.091
545.11	22412.970
545.31	21608.118
545.52	21769.908
545.72	22308.524
545.93	22494.889
546.13	22884.003
546.34	23377.563
546.54	23320.220
546.75	22619.815
546.95	21767.860
547.15	20899.521
547.36	21366.458
547.56	21823.155
547.77	21851.827
547.97	22017.712
548.18	21864.114
548.38	22347.435
548.59	22697.638
548.79	22673.062
549.00	22810.276
549.20	22959.778
549.41	22900.387
549.61	23406.235
549.81	23723.670
550.02	24022.673
550.22	24336.013
550.43	24264.334
550.63	23926.419
550.84	24012.434
551.04	24018.578
551.25	23955.090
551.45	23717.526
551.65	23654.039
551.86	24143.504
552.06	23801.493
552.27	23512.729
552.47	23383.707
552.68	23619.224
552.88	23234.205
553.08	23404.187
553.29	23369.371
553.49	23320.220
553.70	23537.305
553.90	23563.928
554.11	23637.655
554.31	23914.131
554.51	23692.950
554.72	24075.921
554.92	24006.290
555.13	23809.685
555.33	24215.182
555.53	24170.127
555.74	24393.356
555.94	25620.089
556.15	25615.993
556.35	26111.602
556.56	25742.967
556.76	25726.583
556.96	25185.920
557.17	24948.355
557.37	24862.341
557.58	24735.367
557.78	24428.171
557.98	24516.234
558.19	24508.042
558.39	24833.669
558.59	25777.783
558.80	26431.085
559.00	26027.635
559.21	25886.325
559.41	25728.631
559.61	25798.262
559.82	25478.779
560.02	25394.812
560.23	25415.292
560.43	25538.170
560.63	25503.355
560.84	25300.606
561.04	25296.510
561.24	25163.392
561.45	24923.780
561.65	24743.558
561.85	25065.090
562.06	25403.004
562.26	25513.595
562.47	25560.698
562.67	25581.178
562.87	25806.454
563.08	26351.214
563.28	26144.369
563.48	26449.516
563.69	26775.143
563.89	26515.051
564.09	26302.063
564.30	26381.933
564.50	26605.162
564.70	26615.402
564.91	26920.549
565.11	27332.191
565.31	27266.656
565.52	27643.482
565.72	27260.512
565.92	27164.258
566.13	27575.899
566.33	27311.711
566.53	27481.693
566.74	27098.722
566.94	26570.347
567.14	26396.269
567.35	26494.572
567.55	27008.612
567.75	27188.833
567.96	27471.453
568.16	27975.253
568.36	28421.710
568.57	28233.297
568.77	28245.585
568.97	28325.456
569.18	28190.290
569.38	27975.253
569.58	27952.725
569.79	27885.142
569.99	28221.009
570.19	28112.467
570.39	28118.611
570.60	28249.681
570.80	28755.529
571.00	28610.123
571.21	28841.544
571.41	28397.135
571.61	27962.965
571.82	28251.729
572.02	27872.855
572.22	27543.132
572.42	27895.382
572.63	28218.961
572.83	28249.681
573.03	29042.245
573.24	29376.064
573.44	29324.865
573.64	29339.200
573.84	29566.525
574.05	29564.477
574.25	29713.979
574.45	29570.621
574.66	29081.156
574.86	29115.972
575.06	28571.212
575.26	28571.212
575.47	28759.625
575.67	28997.190
575.87	28917.319
576.07	28765.769
576.28	28636.747
576.48	29138.499
576.68	28694.090
576.88	28632.651
577.09	28431.950
577.29	28296.784
577.49	28124.755
577.69	28384.847
577.90	28417.614
578.10	28618.315
578.30	29630.012
578.50	30064.181
578.71	29922.871
578.91	29193.795
579.11	28931.655
579.31	28626.507
579.52	28051.028
579.72	27946.582
579.92	29109.828
580.12	29101.636
580.33	29568.573
580.53	29744.698
580.73	29707.835
580.93	30105.141
581.13	29953.591
581.34	30021.174
581.54	29619.772
581.74	29146.691
581.94	29165.123
582.15	29656.635
582.35	30055.989
582.55	31067.686
582.75	31182.372
582.95	30531.118
583.16	30531.118
583.36	30744.107
583.56	30993.959
583.76	31311.394
583.96	31352.354
584.17	31223.332
584.37	31362.593
584.57	30953.000
584.77	31125.029
584.97	31499.807
585.18	32181.781
585.38	32407.058
585.58	32876.042
585.78	32343.570
585.98	31608.350
586.19	30791.210
586.39	30342.705
586.59	29728.314
586.79	30434.864
586.99	30703.148
587.20	30813.738
587.40	30475.823
587.60	30395.952
587.80	30211.635
588.00	30488.111
588.20	30754.347
588.41	30551.598
588.61	30367.281
588.81	30742.059
589.01	31108.645
589.21	31907.353
589.41	32321.043
589.62	32542.223
589.82	32439.825
590.02	32587.279
590.22	32415.249
590.42	32804.363
590.62	32290.323
590.83	32574.991
591.03	32398.866
591.23	31856.154
591.43	31774.235
591.63	31399.457
591.83	31895.065
592.03	32593.423
592.24	32716.301
592.44	32818.699
592.64	33312.260
592.84	33003.016
593.04	33590.783
593.24	33109.511
593.44	32546.319
593.65	32321.043
593.85	32321.043
594.05	32177.685
594.25	31983.128
594.45	32306.707
594.65	32704.013
594.85	33115.655
595.06	33981.945
595.26	34809.325
595.46	34715.118
595.66	35110.376
595.86	34358.772
596.06	33707.518
596.26	33594.879
596.46	33347.075
596.66	33218.053
596.87	32912.906
597.07	33340.931
597.27	33271.300
597.47	33435.138
597.67	33707.518
597.87	34381.299
598.07	34121.207
598.27	33715.710
598.47	33893.883
598.67	33922.554
598.88	34608.624
599.08	35186.151
599.28	35337.701
599.48	35911.132
599.68	35730.911
599.88	36226.519
600.08	35919.324
600.28	36074.970
600.48	36085.209
600.68	36140.505
600.88	36146.648
601.09	36427.220
601.29	35900.892
601.49	35726.815
601.69	36466.132
601.89	36275.670
602.09	36615.633
602.29	36308.438
602.49	36679.120
602.69	36935.116
602.89	37066.186
603.09	37778.880
603.29	37979.580
603.49	38350.263
603.69	39366.055
603.90	39976.350
604.10	40056.221
604.30	39206.314
604.50	38659.506
604.70	37690.817
604.90	37832.127
605.10	37074.378
605.30	36648.401
605.50	36175.320
605.70	36437.460
605.90	36947.404
606.10	37131.721
606.30	37694.913
606.50	38002.108
606.70	37834.175
606.90	37543.363
607.10	37510.596
607.30	37311.943
607.50	37060.042
607.70	37547.459
607.90	38182.329
608.10	37664.193
608.30	38573.491
608.50	39267.753
608.70	40267.162
608.90	41264.522
609.11	41989.503
609.31	42024.319
609.51	41833.858
609.71	41784.706
609.91	41809.282
610.11	42024.319
610.31	40865.168
610.51	40068.509
610.71	39208.362
610.91	39097.771
611.11	39212.458
611.31	39931.295
611.51	41203.083
611.71	42272.123
611.91	42751.348
612.11	42440.056
612.31	42739.060
612.51	42841.458
612.71	42730.868
612.91	42704.244
613.11	42712.436
613.31	42847.602
613.51	42470.776
613.71	42065.278
613.91	42048.894
614.11	41737.603
614.31	42063.230
614.50	42102.142
614.70	42030.463
614.90	41973.120
615.10	41842.050
615.30	41598.341
615.50	41764.227
615.70	42151.293
615.90	42460.536
616.10	42384.761
616.30	42943.857
616.50	43423.081
616.70	42671.477
616.90	42669.429
617.10	42276.219
617.30	42775.923
617.50	43765.092
617.70	43711.845
617.90	43965.793
618.10	43476.329
618.30	43771.236
618.50	44006.752
618.70	43568.487
618.90	43384.170
619.10	44070.240
619.30	42702.196
619.49	42542.455
619.69	42790.259
619.89	43408.746
620.09	44359.003
620.29	44373.339
620.49	44440.922
620.69	44066.144
620.89	43924.834
621.09	44004.705
621.29	43537.768
621.49	44203.358
621.69	43861.347
621.89	43986.273
622.09	44746.069
622.29	45006.161
622.48	44952.914
622.68	44285.276
622.88	44567.896
623.08	44670.294
623.28	45567.305
623.48	46120.256
623.68	46843.189
623.88	47914.277
624.08	47342.894
624.28	46892.340
624.48	45763.910
624.67	45026.641
624.87	44645.719
625.07	43851.107
625.27	44492.121
625.47	45296.973
625.67	46071.105
625.87	46386.492
626.07	46542.138
626.27	45944.131
626.47	46282.046
626.66	47074.610
626.86	47760.679
627.06	47557.930
627.26	48139.553
627.46	47383.853
627.66	46695.735
627.86	46390.588
628.06	46705.975
628.25	46632.248
628.45	47023.410
628.65	46279.998
628.85	45841.732
629.05	45681.991
629.25	45950.275
629.45	45311.309
629.65	45372.748
629.84	45487.434
630.04	46243.134
630.24	46224.703
630.44	45825.349
630.64	45985.090
630.84	45692.231
631.04	45571.401
631.23	46443.835
631.43	48016.675
631.63	47883.557
631.83	48166.177
632.03	48594.202
632.23	48405.789
632.42	48491.804
632.62	47924.517
632.82	47365.421
633.02	46810.422
633.22	47068.466
633.42	47725.864
633.62	47672.617
633.81	48819.479
634.01	48788.760
634.21	48835.863
634.41	48702.745
634.61	48327.967
634.80	47224.111
635.00	46923.060
635.20	45655.367
635.40	46331.197
635.60	46355.773
635.80	46214.463
635.99	46241.086
636.19	46744.887
636.39	46605.625
636.59	46236.990
636.79	47375.661
636.98	46634.296
637.18	47541.547
637.38	47670.569
637.58	46800.182
637.78	46359.869
637.97	46370.108
638.17	46771.510
638.37	47809.830
638.57	48332.062
638.77	49009.940
638.96	49437.966
639.16	49722.633
639.36	49360.143
639.56	49141.010
639.76	48852.247
639.95	48223.520
640.15	47719.720
640.35	47697.192
640.55	48956.693
640.75	48801.047
640.94	48827.671
641.14	48676.121
641.34	48798.999
641.54	48200.992
641.73	48190.753
641.93	47985.956
642.13	48233.760
642.33	48504.092
642.53	49216.785
642.72	49777.928
642.92	49386.766
643.12	48805.143
643.32	47643.945
643.51	47093.041
643.71	47346.990
643.91	47254.831
644.11	46855.477
644.30	47830.310
644.50	48518.428
644.70	49437.966
644.90	50160.899
645.09	49913.094
645.29	49462.541
645.49	48971.029
645.69	49022.228
645.88	48932.117
646.08	48952.597
646.28	49759.497
646.48	50087.172
646.67	50420.991
646.87	49925.382
647.07	49147.154
647.26	48538.907
647.46	48432.413
647.66	48252.192
647.86	47287.598
648.05	46546.234
648.25	46574.905
648.45	46558.522
648.65	46271.806
648.84	47201.584
649.04	47242.543
649.24	47213.872
649.43	47856.934
649.63	47555.882
649.83	47994.148
650.03	48366.878
650.22	48555.291
650.42	47803.687
650.62	47170.864
650.81	47492.395
651.01	47664.425
651.21	48903.446
651.40	48936.213
651.60	49964.294
651.80	49245.457
652.00	48856.342
652.19	49022.228
652.39	48727.320
652.59	48809.239
652.78	48760.088
652.98	49784.072
653.18	50029.829
653.37	50758.905
653.57	50595.068
653.77	50406.655
653.96	48837.911
654.16	48014.627
654.36	47756.583
654.55	48086.306
654.75	48092.450
654.95	48512.284
655.14	49497.357
655.34	49564.940
655.54	50314.496
655.73	50746.618
655.93	50971.894
656.13	51281.138
656.32	50371.839
656.52	49646.858
656.72	49661.194
656.91	49650.954
657.11	49642.762
657.31	49218.833
657.50	49227.025
657.70	48315.679
657.90	47562.026
658.09	47813.926
658.29	47803.687
658.49	47822.118
658.68	47443.244
658.88	47064.370
659.07	46613.817
659.27	45980.994
659.47	46476.603
659.66	46789.942
659.86	47981.860
660.06	48377.118
660.25	49220.881
660.45	50115.843
660.64	50629.883
660.84	51160.307
661.04	50711.802
661.23	50980.086
661.43	50427.135
661.63	49900.807
661.82	50162.947
662.02	49673.482
662.21	49665.290
662.41	49321.231
662.61	49728.777
662.80	49251.600
663.00	49335.567
663.19	49421.582
663.39	50013.445
663.59	49509.645
663.78	48895.254
663.98	48076.066
664.17	47285.550
664.37	47244.591
664.57	48901.398
664.76	49460.493
664.96	50701.562
665.15	52030.694
665.35	52669.660
665.55	53019.863
665.74	52909.273
665.94	52561.118
666.13	52227.299
666.33	51987.687
666.53	51598.573
666.72	50525.437
666.92	50191.618
667.11	49483.021
667.31	49925.382
667.50	49503.501
667.70	49681.674
667.90	48727.320
668.09	48536.859
668.29	48168.225
668.48	47803.687
668.68	47990.052
668.87	48428.317
669.07	49181.970
669.26	49878.279
669.46	49702.154
669.66	49609.995
669.85	49104.147
670.05	49124.626
670.24	49341.711
670.44	49675.530
670.63	49450.253
670.83	49859.847
671.02	50488.574
671.22	50939.127
671.42	50121.987
671.61	49167.634
671.81	49462.541
672.00	48964.885
672.20	50062.596
672.39	50556.157
672.59	51354.864
672.78	50928.887
672.98	51172.595
673.17	51444.975
673.37	51010.806
673.56	51496.174
673.76	50871.544
673.95	49995.013
674.15	50734.330
674.34	50681.083
674.54	51313.905
674.73	52827.354
674.93	52401.376
675.13	52591.838
675.32	51883.240
675.52	51729.643
675.71	51121.396
675.91	51301.617
676.10	51696.875
676.30	52667.612
676.49	52522.207
676.69	52401.376
676.88	51528.942
677.08	51236.082
677.27	50932.983
677.47	51078.389
677.66	51279.090
677.86	51637.484
678.05	52423.904
678.24	52489.439
678.44	53460.176
678.63	53390.545
678.83	53150.933
679.02	52563.166
679.22	52059.366
679.41	51901.672
679.61	49990.917
679.80	49028.372
680.00	48647.450
680.19	48956.693
680.39	49435.918
680.58	50023.685
680.78	49816.840
680.97	49890.567
681.17	50455.806
681.36	50199.810
681.56	50689.275
681.75	49886.471
681.94	49720.585
682.14	49501.453
682.33	50005.253
682.53	50470.142
682.72	51035.381
682.92	51105.012
683.11	51997.927
683.31	52057.318
683.50	52466.911
683.69	52108.517
683.89	51549.421
684.08	52120.805
684.28	52100.325
684.47	51743.978
684.67	51279.090
684.86	51135.732
685.06	51336.433
685.25	51225.842
685.44	50959.606
685.64	51191.027
685.83	51170.547
686.03	51846.377
686.22	52290.786
686.42	51621.100
686.61	51440.879
686.80	50445.566
687.00	50683.131
687.19	50633.979
687.39	50754.810
687.58	51076.341
687.77	51686.635
687.97	52604.125
688.16	52718.812
688.36	51899.624
688.55	50615.548
688.74	50717.946
688.94	49018.132
689.13	48706.841
689.33	49966.342
689.52	50812.153
689.71	51619.052
689.91	52622.557
690.10	52669.660
690.30	52708.572
690.49	51897.576
690.68	50595.068
690.88	49956.102
691.07	49294.608
691.27	49550.604
691.46	49130.770
691.65	48473.372
691.85	48354.590
692.04	47596.842
692.23	47758.631
692.43	47226.159
692.62	47721.768
692.82	48317.727
693.01	49931.526
693.20	50758.905
693.40	51995.879
693.59	52223.203
693.78	52278.498
693.98	52976.856
694.17	52159.716
694.36	52806.874
694.56	51836.137
694.75	51969.255
694.94	52585.694
695.14	51393.776
695.33	51584.237
695.53	50314.496
695.72	49749.257
695.91	49294.608
696.11	49456.397
696.30	49528.076
696.49	49493.261
696.69	49636.619
696.88	50072.836
697.07	49681.674
697.27	51236.082
697.46	51219.698
697.65	52126.949
697.85	52499.679
698.04	52774.107
698.23	51926.248
698.43	52258.019
698.62	51719.403
698.81	52190.436
699.01	51440.879
699.20	50863.352
699.39	49335.567
699.58	47885.605
699.78	47242.543
699.97	47654.185
700.16	48084.258
700.36	49147.154
700.55	50033.925
700.74	50902.263
700.94	50730.234
701.13	50414.847
701.32	50967.798
701.52	51186.931
701.71	51637.484
701.90	51528.942
702.09	51453.167
702.29	51211.507
702.48	50887.928
702.67	50384.127
702.87	50244.865
703.06	51154.163
703.25	51162.355
703.44	52008.166
703.64	51438.831
703.83	51211.507
704.02	50681.083
704.22	49165.586
704.41	48274.719
704.60	47947.044
704.79	47824.166
704.99	47385.901
705.18	48262.432
705.37	48520.476
705.56	49237.265
705.76	49851.655
705.95	50648.315
706.14	50470.142
706.33	50642.171
706.53	50195.714
706.72	50507.005
706.91	50113.795
707.11	49405.198
707.30	49272.080
707.49	49067.283
707.68	48377.118
707.88	48370.974
708.07	48528.668
708.26	49679.626
708.45	49548.556
708.64	50480.382
708.84	50392.319
709.03	50500.861
709.22	50597.116
709.41	50578.684
709.61	50019.589
709.80	50334.976
709.99	49630.475
710.18	48999.700
710.38	48870.678
710.57	48461.085
710.76	48059.683
710.95	48807.191
711.14	50390.271
711.34	49777.928
711.53	50681.083
711.72	50576.636
711.91	50666.747
712.11	50449.662
712.30	49767.689
712.49	49417.486
712.68	48829.719
712.87	48741.656
713.07	48071.970
713.26	47822.118
713.45	48229.664
713.64	47744.295
713.83	48522.524
714.03	48739.608
714.22	49075.475
714.41	48776.472
714.60	48940.309
714.79	48854.295
714.99	49368.335
715.18	48297.247
715.37	48053.539
715.56	47566.122
715.75	47248.687
715.94	47043.890
716.14	46906.676
716.33	46900.532
716.52	46619.961
716.71	46196.031
716.90	46507.322
717.10	46759.222
717.29	47099.185
717.48	47078.706
717.67	47308.078
717.86	47553.834
718.05	47867.174
718.24	47766.823
718.44	47625.513
718.63	47740.200
718.82	47574.314
719.01	47695.144
719.20	47600.938
719.39	46746.935
719.59	46757.175
719.78	46388.540
719.97	45612.360
720.16	45174.095
720.35	45200.718
720.54	45505.866
720.73	45342.028
720.93	45059.408
721.12	45393.227
721.31	45305.165
721.50	45217.102
721.69	44649.815
721.88	44150.110
722.07	43988.321
722.27	45106.512
722.46	44694.870
722.65	44557.656
722.84	44209.501
723.03	44096.863
723.22	44670.294
723.41	45430.091
723.60	46402.876
723.79	46531.898
723.99	45710.662
724.18	45362.508
724.37	44975.442
724.56	44725.590
724.75	44602.711
724.94	44854.612
725.13	44985.682
725.32	44537.176
725.51	44551.512
725.71	44901.715
725.90	44406.106
726.09	44737.877
726.28	44510.553
726.47	44250.461
726.66	44031.328
726.85	43046.255
727.04	42573.174
727.23	42274.171
727.42	42427.769
727.61	43441.513
727.81	43367.786
728.00	43861.347
728.19	44098.911
728.38	44696.918
728.57	44141.918
728.76	44066.144
728.95	43351.402
729.14	42935.665
729.33	42294.651
729.52	42048.894
729.71	42218.876
729.90	42102.142
730.09	41770.371
730.28	42173.820
730.48	41624.965
730.67	41962.880
730.86	41403.784
731.05	40572.309
731.24	40138.140
731.43	39314.856
731.62	39277.993
731.81	39015.853
732.00	39232.937
732.19	39802.273
732.38	39656.867
732.57	39968.158
732.76	39968.158
732.95	40734.098
733.14	40441.239
733.33	40844.689
733.52	40158.619
733.71	40390.040
733.90	40537.493
734.09	41221.515
734.28	41407.880
734.47	40773.010
734.66	40881.552
734.85	40754.578
735.04	39820.704
735.23	38694.322
735.42	38204.857
735.61	37674.433
735.81	37705.153
736.00	37279.175
736.19	37178.825
736.38	37512.644
736.57	37766.592
736.76	38753.713
736.95	38725.041
737.14	39681.442
737.33	40480.150
737.52	41131.404
737.71	41086.349
737.90	41057.678
738.09	40084.892
738.28	39114.155
738.47	37748.160
738.66	37260.743
738.85	36668.880
739.04	36484.563
739.22	36269.527
739.41	36261.335
739.60	36885.965
739.79	36564.434
739.98	37152.201
740.17	37436.869
740.36	37848.510
740.55	38290.872
740.74	38624.691
740.93	38700.465
741.12	38059.451
741.31	37424.581
741.50	37219.784
741.69	37182.921
741.88	36515.283
742.07	37215.688
742.26	37131.721
742.45	36857.294
742.64	36855.246
742.83	36451.796
743.02	36105.689
743.21	35886.556
743.40	35552.738
743.59	34147.831
743.78	33717.758
743.97	33187.334
744.16	32194.069
744.34	31888.921
744.53	31866.394
744.72	32077.335
744.91	32372.242
745.10	32960.009
745.29	33207.813
745.48	33230.341
745.67	33641.983
745.86	33289.732
746.05	33549.824
746.24	33707.518
746.43	33711.614
746.62	33654.270
746.81	33105.415
747.00	32759.308
747.18	32906.762
747.37	33326.595
747.56	33361.411
747.75	33041.928
747.94	32431.633
748.13	32167.445
748.32	31264.291
748.51	31036.966
748.70	30901.800
748.89	30629.421
749.08	31018.535
749.26	31223.332
749.45	31286.819
749.64	30797.354
749.83	30285.362
750.02	29836.857
750.21	29679.163
750.40	29404.735
750.59	29081.156
750.78	28917.319
750.96	28520.013
751.15	28597.836
751.34	28741.193
751.53	28526.157
751.72	28499.533
751.91	28972.614
752.10	29029.957
752.29	28802.632
752.47	28761.673
752.66	28218.961
752.85	27987.541
753.04	27223.649
753.23	26834.535
753.42	27160.162
753.61	27006.564
753.80	26879.590
753.98	27016.804
754.17	26750.568
754.36	25679.480
754.55	26123.889
754.74	25173.632
754.93	24917.636
755.12	24809.093
755.30	24174.223
755.49	23903.891
755.68	23983.762
755.87	24460.939
756.06	24188.559
756.25	24432.267
756.43	24602.249
756.62	24946.307
756.81	25005.698
757.00	24966.787
757.19	24462.987
757.38	24188.559
757.56	23318.172
757.75	23133.855
757.94	22378.155
758.13	22544.040
758.32	22251.180
758.51	22054.575
758.69	22021.808
758.88	21952.177
759.07	21651.126
759.26	21544.631
759.45	21167.805
759.63	20793.027
759.82	20692.676
760.01	20541.127
760.20	20192.972
760.39	20033.230
760.57	19871.441
760.76	19713.747
760.95	19353.305
761.14	19537.622
761.33	19343.065
761.51	18964.191
761.70	19039.965
761.89	19220.187
762.08	18968.287
762.27	18826.977
762.45	18816.737
762.64	18579.172
762.83	18407.143
763.02	17899.247
763.21	17561.332
763.39	17450.742
763.58	17456.886
763.77	17389.303
763.96	17207.033
764.14	17354.487
764.33	17100.539
764.52	16826.111
764.71	16668.418
764.89	16699.137
765.08	17047.292
765.27	16797.440
765.46	16766.720
765.65	16768.768
765.83	16484.100
766.02	16516.868
766.21	16613.122
766.40	16649.986
766.58	16277.256
766.77	15687.441
766.96	15460.116
767.15	15095.578
767.33	14712.608
767.52	14604.065
767.71	14450.468
767.90	14423.844
768.08	14270.246
768.27	14169.896
768.46	14090.025
768.64	14018.346
768.83	13815.597
769.02	13416.243
769.21	13563.697
769.39	13389.620
769.58	13365.044
769.77	13362.996
769.96	13295.413
770.14	13356.852
770.33	13467.442
770.52	13432.627
770.70	13414.195
770.89	13301.557
771.08	13397.812
771.27	13193.015
771.45	13299.509
771.64	13197.111
771.83	13408.051
772.01	13057.849
772.20	13080.376
772.39	13061.945
772.57	12681.022
772.76	12599.104
772.95	12529.473
773.14	12392.259
773.32	12402.499
773.51	12193.606
773.70	12212.038
773.88	12046.152
774.07	11906.890
774.26	12109.639
774.44	12048.200
774.63	11988.809
774.82	11872.075
775.00	12228.421
775.19	12091.208
775.38	12212.038
775.56	12142.407
775.75	12033.864
775.94	11794.252
776.12	11751.245
776.31	11562.832
776.50	11519.824
776.68	11233.109
776.87	11458.385
777.06	11489.105
777.24	11444.049
777.43	11306.835
777.62	11341.651
777.80	11370.322
777.99	11315.027
778.18	11102.039
778.36	11165.526
778.55	11243.348
778.74	11276.116
778.92	11274.068
779.11	11179.861
779.29	11378.514
779.48	11507.536
779.67	11419.474
779.85	11458.385
780.04	11394.898
780.23	11249.492
780.41	11444.049
780.60	11431.762
780.79	11644.750
780.97	11544.400
781.16	11722.573
781.34	11743.053
781.53	11702.093
781.72	11788.108
781.90	11847.499
782.09	11808.588
782.28	11925.322
782.46	11773.772
782.65	11759.437
782.83	11513.680
783.02	11577.167
783.21	11681.614
783.39	11665.230
783.58	12027.720
783.76	12044.104
783.95	12060.488
784.14	12330.820
784.32	12451.650
784.51	12705.598
784.69	12764.989
784.88	12650.303
785.06	12736.318
785.25	12865.340
785.44	12951.354
785.62	13035.321
785.81	12652.351
785.99	12724.030
786.18	12463.938
786.37	12433.218
786.55	11999.049
786.74	12160.838
786.92	11745.101
787.11	11665.230
787.29	11818.828
787.48	11663.182
787.67	11753.293
787.85	11929.418
788.04	11886.411
788.22	11929.418
788.41	12349.252
788.59	12199.750
788.78	12287.812
788.96	12009.289
789.15	12042.056
789.34	12076.872
789.52	12070.728
789.71	12101.447
789.89	12166.982
790.08	12533.569
790.26	12705.598
790.45	13035.321
790.63	12848.956
790.82	13076.280
791.00	13020.985
791.19	12877.628
791.38	12707.646
791.56	12832.572
791.75	12992.314
791.93	13012.793
792.12	13145.911
792.30	13125.432
792.49	13309.749
792.67	13219.638
792.86	13578.033
793.04	13399.860
793.23	13268.790
793.41	13223.734
793.60	13164.343
793.78	13205.302
793.97	13166.391
794.15	13059.897
794.34	13215.542
794.52	13178.679
794.71	13451.059
794.89	13641.520
795.08	14063.401
795.26	14006.058
795.45	14374.693
795.63	14579.490
795.82	15071.002
796.00	15154.969
796.19	15267.607
796.37	15132.441
796.56	15187.736
796.74	15400.725
796.93	15034.139
797.11	15505.171
797.30	15550.227
797.48	15531.795
797.67	15556.371
797.85	15318.806
798.04	15339.286
798.22	15068.954
798.41	14853.917
798.59	14647.072
798.77	14755.615
798.96	14651.168
799.14	14714.655
799.33	14898.973
799.51	14937.884
799.70	15101.722
799.88	14925.596
800.07	15130.393
800.25	15210.264
800.44	15339.286
800.62	15286.039
800.80	15290.135
800.99	15243.031
801.17	15251.223
801.36	15163.161
801.54	15312.662
801.73	15339.286
801.91	15415.061
802.10	15550.227
802.28	15374.101
802.46	15521.555
802.65	15666.961
802.83	15568.658
803.02	15687.441
803.20	15769.359
803.39	15484.692
803.57	15136.537
803.75	15060.762
803.94	14839.582
804.12	14460.707
804.31	14483.235
804.49	14149.416
804.67	13819.693
804.86	13852.461
805.04	13432.627
805.23	13541.169
805.41	13537.073
805.59	13942.571
805.78	14186.280
805.96	14573.346
806.15	14737.183
806.33	14640.929
806.51	14776.095
806.70	14841.630
806.88	14833.438
807.07	14591.777
807.25	14329.637
807.43	14305.062
807.62	14149.416
807.80	14206.759
807.99	14472.995
808.17	14606.113
808.35	14511.907
808.54	14757.663
808.72	14872.349
808.90	14982.939
809.09	15030.043
809.27	14989.083
809.46	14593.825
809.64	14882.589
809.82	14718.751
810.01	14669.600
810.19	14724.895
810.37	15073.050
810.56	15165.209
810.74	14999.323
810.92	15077.146
811.11	15071.002
811.29	14845.725
811.48	14591.777
811.66	14350.117
811.84	14075.689
812.03	13842.221
812.21	13860.652
812.39	14057.258
812.58	13768.494
812.76	13846.317
812.94	14128.936
813.13	14151.464
813.31	13995.818
813.49	14389.028
813.68	14475.043
813.86	14685.984
814.04	15126.297
814.23	15173.400
814.41	15255.319
814.59	15200.024
814.78	15249.175
814.96	15281.943
815.14	15146.777
815.33	14913.308
815.51	14745.375
815.69	14425.892
815.87	14139.176
816.06	14106.409
816.24	13819.693
816.42	13522.738
816.61	13211.446
816.79	13184.823
816.97	12738.366
817.16	12562.240
817.34	12582.720
817.52	12171.078
817.70	12406.595
817.89	12406.595
818.07	12044.104
818.25	12472.130
818.44	12726.078
818.62	12824.380
818.80	12982.074
818.98	12832.572
819.17	12707.646
819.35	12404.547
819.53	12488.513
819.72	12275.525
819.90	11972.425
820.08	11949.898
820.26	11941.706
820.45	11642.702
820.63	11792.204
820.81	11640.654
820.99	11601.743
821.18	11792.204
821.36	11833.163
821.54	12052.296
821.73	11990.857
821.91	11585.359
822.09	11697.998
822.27	11736.909
822.46	11347.795
822.64	11423.570
822.82	11347.795
823.00	11063.127
823.19	10975.065
823.37	10962.777
823.55	10864.474
823.73	10559.327
823.91	10348.386
824.10	10346.338
824.28	10106.726
824.46	9736.043
824.64	9944.936
824.83	9760.619
825.01	9932.648
825.19	10043.239
825.37	9891.689
825.56	10444.641
825.74	10260.323
825.92	10471.264
826.10	10671.965
826.28	10803.035
826.47	10651.485
826.65	10862.426
826.83	10735.452
827.01	10700.637
827.19	10870.618
827.38	10712.925
827.56	10764.124
827.74	10266.467
827.92	10157.925
828.10	9989.992
828.29	9807.722
828.47	9770.859
828.65	9627.501
828.83	9826.154
829.01	9736.043
829.20	9426.800
829.38	9299.826
829.56	9310.066
829.74	9330.546
829.92	9396.081
830.10	9240.435
830.29	9201.524
830.47	9299.826
830.65	9273.202
830.83	9363.313
831.01	9285.490
831.20	9385.841
831.38	9402.225
831.56	9619.309
831.74	9398.129
831.92	9344.881
832.10	9152.372
832.29	8984.439
832.47	8939.384
832.65	8712.059
832.83	8677.244
833.01	8744.827
833.19	8826.745
833.37	8978.295
833.56	8675.196
833.74	8728.443
833.92	8654.716
834.10	8554.365
834.28	8791.930
834.46	8826.745
834.64	8798.074
834.83	8939.384
835.01	8966.007
835.19	8804.218
835.37	8800.122
835.55	8879.992
835.73	8869.753
835.91	8818.553
836.09	8892.280
836.28	8822.649
836.46	8757.114
836.64	8662.908
836.82	8662.908
837.00	8767.354
837.18	8533.886
837.36	8331.137
837.54	8306.561
837.72	8198.019
837.91	8230.786
838.09	8005.510
838.27	7976.838
838.45	7860.104
838.63	7675.787
838.81	7718.794
838.99	7741.322
839.17	7624.588
839.35	7651.211
839.53	7421.839
839.72	7350.160
839.90	7620.492
840.08	7597.964
840.26	7436.175
840.44	7530.381
840.62	7569.292
840.80	7620.492
840.98	7464.846
841.16	7532.429
841.34	7610.252
841.52	7540.621
841.70	7708.554
841.89	7597.964
842.07	7446.414
842.25	7663.499
842.43	7735.178
842.61	7677.835
842.79	7364.496
842.97	7366.544
843.15	7401.359
843.33	7346.064
843.51	7321.488
843.69	7212.946
843.87	7016.341
844.05	7141.267
844.23	6997.909
844.41	6907.799
844.59	6797.208
844.77	6866.839
844.95	6782.872
845.13	6721.433
845.31	6850.455
845.50	6823.832
845.68	6719.385
845.86	6723.481
846.04	6850.455
846.22	7055.252
846.40	6852.503
846.58	6930.326
846.76	6827.928
846.94	6991.765
847.12	6651.802
847.30	6909.847
847.48	6821.784
847.66	6752.153
847.84	6813.592
848.02	6915.990
848.20	6733.721
848.38	6813.592
848.56	6651.802
848.74	6623.131
848.92	6524.828
849.10	6623.131
849.28	6438.814
849.46	6469.533
849.64	6397.854
849.82	6496.157
850.00	6383.519
850.18	6418.334
850.36	6428.574
850.54	6545.308
850.72	6500.253
850.90	6600.603
851.08	6356.895
851.26	6365.087
851.44	6537.116
851.62	6395.806
851.80	6170.530
851.98	6332.319
852.16	6184.866
852.34	6141.858
852.52	6332.319
852.70	6326.175
852.87	6307.744
853.05	6428.574
853.23	6481.821
853.41	6442.910
853.59	6578.076
853.77	6389.662
853.95	6340.511
854.13	6434.718
854.31	6535.068
854.49	6784.920
854.67	6696.858
854.85	6754.201
855.03	6801.304
855.21	6748.057
855.39	6764.441
855.57	6821.784
855.75	6705.050
855.93	6817.688
856.11	6809.496
856.28	6539.164
856.46	6475.677
856.64	6471.581
856.82	6459.293
857.00	6360.991
857.18	6565.788
857.36	6625.179
857.54	6477.725
857.72	6559.644
857.90	6635.419
858.08	6688.666
858.26	6713.242
858.44	6694.810
858.61	6967.190
858.79	6596.507
858.97	6719.385
859.15	6766.489
859.33	6748.057
859.51	6799.256
859.69	6832.024
859.87	6905.751
860.05	6985.621
860.23	6926.230
860.40	6993.813
860.58	7051.156
860.76	7036.821
860.94	6868.887
861.12	7042.965
861.30	6729.625
861.48	6819.736
861.66	6797.208
861.84	6750.105
862.01	6713.242
862.19	6705.050
862.37	6680.474
862.55	6719.385
862.73	6750.105
862.91	6760.345
863.09	6809.496
863.27	7002.005
863.44	6928.278
863.62	6958.998
863.80	7018.389
863.98	7045.012
864.16	7100.308
864.34	6926.230
864.52	7049.108
864.69	7051.156
864.87	6995.861
865.05	6901.655
865.23	7102.356
865.41	6858.647
865.59	6903.703
865.76	7018.389
865.94	6969.238
866.12	6823.832
866.30	6940.566
866.48	6805.400
866.66	6961.046
866.83	6776.729
867.01	6856.599
867.19	6997.909
867.37	7096.212
867.55	7274.385
867.73	7395.215
867.90	7305.105
868.08	7602.060
868.26	7311.248
868.44	7151.507
868.62	7225.234
868.79	7151.507
868.97	6979.478
869.15	6936.470
869.33	6739.865
869.51	6723.481
869.69	6717.338
869.86	6786.968
870.04	6686.618
870.22	6881.175
870.40	6776.729
870.57	6795.160
870.75	6991.765
870.93	6891.415
871.11	7163.795
871.29	6989.717
871.46	7282.577
871.64	6999.957
871.82	7114.643
872.00	7090.068
872.18	7006.101
872.35	7169.939
872.53	6997.909
872.71	7083.924
872.89	7202.706
873.06	7032.725
873.24	7008.149
873.42	7038.869
873.60	7018.389
873.77	7014.293
873.95	6944.662
874.13	7219.090
874.31	7339.920
874.49	7440.270
874.66	7483.278
874.84	7511.949
875.02	7704.458
875.20	7554.957
875.37	7634.828
875.55	7653.259
875.73	7483.278
875.91	7438.222
876.08	7221.138
876.26	7192.466
876.44	6856.599
876.61	7055.252
876.79	7200.658
876.97	7262.097
877.15	7141.267
877.32	7229.330
877.50	7229.330
877.68	7409.551
877.86	7223.186
878.03	7333.776
878.21	7362.448
878.39	7366.544
878.56	7292.817
878.74	7542.669
878.92	7419.791
879.10	7483.278
879.27	7612.300
879.45	7712.650
879.63	7698.315
879.80	7614.348
879.98	7473.038
880.16	7460.750
880.34	7438.222
880.51	7450.510
880.69	7333.776
880.87	7456.654
881.04	7522.189
881.22	7317.392
881.40	7313.296
881.57	7239.570
881.75	7139.219
881.93	7147.411
882.10	6987.669
882.28	7059.348
882.46	7153.555
882.63	7116.691
882.81	7155.603
882.99	7024.533
883.16	7239.570
883.34	7344.016
883.52	7491.470
883.69	7518.093
883.87	7583.628
884.05	7702.410
884.22	7905.159
884.40	7880.584
884.58	7925.639
884.75	7974.790
884.93	7931.783
885.11	7960.455
885.28	7896.968
885.46	7849.864
885.64	7720.842
885.81	7741.322
885.99	7546.765
886.17	7417.743
886.34	7147.411
886.52	7407.503
886.70	7133.075
886.87	7182.226
887.05	7294.865
887.22	7298.961
887.40	7544.717
887.58	7423.887
887.75	7464.846
887.93	7597.964
888.11	7557.005
888.28	7624.588
888.46	7729.034
888.63	7890.824
888.81	7880.584
888.99	8021.894
889.16	7907.207
889.34	7782.281
889.51	7950.215
889.69	7870.344
889.87	7784.329
890.04	7813.001
890.22	7665.547
890.39	7624.588
890.57	7550.861
890.75	7528.333
890.92	7399.311
891.10	7446.414
891.27	7233.426
891.45	7258.001
891.63	7159.699
891.80	7126.931
891.98	7378.831
892.15	7305.105
892.33	7266.193
892.51	7305.105
892.68	7538.573
892.86	7503.758
893.03	7608.204
893.21	7552.909
893.38	7505.805
893.56	7663.499
893.74	7438.222
893.91	7311.248
894.09	7649.163
894.26	7579.532
894.44	7413.647
894.61	7473.038
894.79	7581.580
894.96	7507.853
895.14	7462.798
895.32	7405.455
895.49	7407.503
895.67	7419.791
895.84	7370.640
896.02	7499.662
896.19	7473.038
896.37	7559.053
896.54	7501.710
896.72	7384.975
896.89	7485.326
897.07	7712.650
897.25	7520.141
897.42	7458.702
897.60	7481.230
897.77	7298.961
897.95	7391.119
898.12	7292.817
898.30	7298.961
898.47	7053.204
898.65	7258.001
898.82	7298.961
899.00	7176.082
899.17	7376.783
899.35	7237.522
899.52	7190.418
899.70	7346.064
899.87	7171.987
900.05	7100.308
900.22	7120.787
900.40	7053.204
900.57	6913.942
900.75	7018.389
900.92	6836.120
901.10	6870.935
901.27	6989.717
901.45	6840.216
901.62	6881.175
901.80	6918.038
901.97	6870.935
902.15	6817.688
902.32	6813.592
902.50	6684.570
902.67	6717.338
902.85	6719.385
903.02	6578.076
903.20	6590.363
903.37	6416.286
903.54	6659.994
903.72	6655.898
903.89	6729.625
904.07	6533.020
904.24	6598.555
904.42	6537.116
904.59	6776.729
904.77	6784.920
904.94	6938.518
905.12	6795.160
905.29	6893.463
905.47	6979.478
905.64	6924.182
905.81	6944.662
905.99	6625.179
906.16	6696.858
906.34	6602.651
906.51	6498.205
906.69	6428.574
906.86	6504.349
907.03	6401.950
907.21	6320.032
907.38	6373.279
907.56	6563.740
907.73	6463.389
907.91	6207.393
908.08	6242.209
908.25	6268.832
908.43	6225.825
908.60	6184.866
908.78	6074.275
908.95	6293.408
909.13	6148.002
909.30	6203.297
909.47	6238.113
909.65	6256.545
909.82	6424.478
910.00	6158.242
910.17	6293.408
910.34	6234.017
910.52	6115.235
910.69	6229.921
910.87	6289.312
911.04	6070.179
911.21	6281.120
911.39	6338.463
911.56	6231.969
911.73	6287.264
911.91	6137.762
912.08	6330.271
912.26	6207.393
912.43	6164.386
912.60	5994.405
912.78	5941.157
912.95	5945.253
913.13	5955.493
913.30	5830.567
913.47	5590.955
913.65	5703.593
913.82	5699.497
913.99	5722.025
914.17	5803.943
914.34	5785.512
914.51	5570.475
914.69	5627.818
914.86	5603.242
915.03	5513.132
915.21	5513.132
915.38	5431.213
915.56	5394.350
915.73	5146.545
915.90	5298.095
916.08	5218.224
916.25	5298.095
916.42	5359.534
916.60	5291.951
916.77	5291.951
916.94	5308.335
917.12	5259.184
917.29	5375.918
917.46	5279.663
917.64	5304.239
917.81	5238.704
917.98	5314.479
918.16	5318.575
918.33	5226.416
918.50	5277.615
918.67	5345.198
918.85	5140.402
919.02	5248.944
919.19	5132.210
919.37	5070.771
919.54	4937.653
919.71	5201.841
919.89	4962.228
920.06	5021.619
920.23	5169.073
920.41	5164.977
920.58	4958.132
920.75	4941.749
920.92	5038.003
921.10	4904.885
921.27	5144.498
921.44	5083.058
921.62	4835.254
921.79	5031.859
921.96	4880.310
922.13	4837.302
922.31	4886.453
922.48	4782.007
922.65	4775.863
922.82	4804.535
923.00	4825.014
923.17	4648.889
923.34	4595.642
923.52	4622.265
923.69	4620.218
923.86	4724.664
924.03	4523.963
924.21	4517.819
924.38	4622.265
924.55	4517.819
924.72	4495.291
924.90	4308.926
925.07	4286.399
925.24	4306.878
925.41	4147.137
925.59	4284.351
925.76	4292.542
925.93	4128.705
926.10	4210.624
926.28	4212.672
926.45	4249.535
926.62	4335.550
926.79	4310.974
926.96	4282.303
927.14	4290.495
927.31	4253.631
927.48	4227.008
927.65	4274.111
927.83	4145.089
928.00	4243.391
928.17	4104.129
928.34	4239.295
928.51	4130.753
928.69	4222.912
928.86	4165.568
929.03	4245.439
929.20	4124.609
929.37	4181.952
929.55	4042.690
929.72	4083.650
929.89	3968.963
930.06	3876.805
930.23	4001.731
930.41	3958.724
930.58	3819.462
930.75	3833.798
930.92	3827.654
931.09	3796.934
931.27	3790.790
931.44	3751.879
931.61	3817.414
931.78	3723.207
931.95	3637.192
932.12	3760.071
932.30	3723.207
932.47	3792.838
932.64	3727.303
932.81	3751.879
932.98	3667.912
933.16	3715.015
933.33	3694.536
933.50	3588.041
933.67	3569.610
933.84	3559.370
934.01	3585.993
934.18	3547.082
934.36	3465.163
934.53	3536.842
934.70	3452.875
934.87	3499.979
935.04	3442.635
935.21	3434.444
935.38	3456.971
935.56	3438.540
935.73	3436.492
935.90	3262.414
936.07	3411.916
936.24	3309.518
936.41	3373.005
936.58	3291.086
936.76	3362.765
936.93	3192.783
937.10	3149.776
937.27	3266.510
937.44	3207.119
937.61	3225.551
937.78	3190.735
937.95	3182.543
938.13	3192.783
938.30	3155.920
938.47	3403.724
938.64	3176.400
938.81	3227.599
938.98	3237.839
939.15	3225.551
939.32	3200.975
939.49	3291.086
939.66	3215.311
939.84	3051.473
940.01	3057.617
940.18	3020.754
940.35	3108.817
940.52	3104.721
940.69	3174.352
940.86	3049.425
941.03	3092.433
941.20	3282.894
941.37	3112.912
941.54	3045.330
941.71	3137.488
941.89	3147.728
942.06	3184.591
942.23	3102.673
942.40	3164.112
942.57	3010.514
942.74	2908.116
942.91	2973.651
943.08	2975.699
943.25	2963.411
943.42	2832.341
943.59	2926.547
943.76	2869.204
943.93	2856.916
944.10	2840.533
944.27	2922.451
944.44	2934.739
944.61	2820.053
944.79	2858.964
944.96	2736.086
945.13	2947.027
945.30	2801.621
945.47	2836.437
945.64	2869.204
945.81	2846.677
945.98	2861.012
946.15	2840.533
946.32	2754.518
946.49	2699.223
946.66	2713.559
946.83	2844.629
947.00	2693.079
947.17	2789.333
947.34	2750.422
947.51	2686.935
947.68	2664.407
947.85	2705.367
948.02	2584.537
948.19	2654.168
948.36	2617.304
948.53	2523.098
948.70	2510.810
948.87	2574.297
949.04	2678.743
949.21	2572.249
949.38	2582.489
949.55	2586.585
949.72	2566.105
949.89	2693.079
950.06	2531.289
950.23	2541.529
950.40	2590.680
950.57	2447.323
950.74	2525.145
950.91	2449.371
951.08	2490.330
951.25	2402.267
951.42	2394.075
951.59	2418.651
951.76	2387.932
951.93	2424.795
952.10	2437.083
952.27	2340.828
952.44	2355.164
952.61	2346.972
952.77	2420.699
952.94	2400.219
953.11	2449.371
953.28	2420.699
953.45	2330.588
953.62	2502.618
953.79	2398.171
953.96	2490.330
954.13	2406.363
954.30	2363.356
954.47	2426.843
954.64	2353.116
954.81	2412.507
954.98	2482.138
955.15	2363.356
955.32	2490.330
955.49	2373.596
955.65	2404.315
955.82	2402.267
955.99	2484.186
956.16	2416.603
956.33	2402.267
956.50	2355.164
956.67	2437.083
956.84	2531.289
957.01	2322.397
957.18	2375.644
957.35	2383.836
957.52	2389.980
957.68	2267.101
957.85	2283.485
958.02	2260.958
958.19	2160.607
958.36	2211.806
958.53	2185.183
958.70	2297.821
958.87	2205.662
959.04	2201.566
959.21	2283.485
959.37	2107.360
959.54	2197.470
959.71	2158.559
959.88	2195.422
960.05	2201.566
960.22	2121.696
960.39	2263.005
960.56	2260.958
960.72	2285.533
960.89	2449.371
961.06	2344.924
961.23	2312.157
961.40	2498.522
961.57	2285.533
961.74	2359.260
961.90	2371.548
962.07	2334.684
962.24	2394.075
962.41	2312.157
962.58	2326.492
962.75	2314.205
962.92	2277.341
963.08	2318.301
963.25	2254.814
963.42	2236.382
963.59	2256.862
963.76	2205.662
963.93	2324.445
964.10	2209.758
964.26	2379.740
964.43	2283.485
964.60	2207.710
964.77	2222.046
964.94	2172.895
965.10	2277.341
965.27	2254.814
965.44	2222.046
965.61	2093.024
965.78	2301.917
965.95	2285.533
966.11	2217.950
966.28	2174.943
966.45	2191.327
966.62	2228.190
966.79	2199.518
966.95	2181.087
967.12	2281.437
967.29	2217.950
967.46	2263.005
967.63	2295.773
967.79	2291.677
967.96	2242.526
968.13	2346.972
968.30	2392.028
968.47	2310.109
968.63	2283.485
968.80	2355.164
968.97	2236.382
969.14	2338.780
969.31	2263.005
969.47	2340.828
969.64	2400.219
969.81	2314.205
969.98	2244.574
970.14	2228.190
970.31	2258.910
970.48	2273.245
970.65	2213.854
970.81	2183.135
970.98	2322.397
971.15	2351.068
971.32	2228.190
971.48	2275.293
971.65	2146.271
971.82	2283.485
971.99	2127.840
972.15	2185.183
972.32	2236.382
972.49	2297.821
972.66	2295.773
972.82	2275.293
972.99	2244.574
973.16	2375.644
973.33	2189.279
973.49	2283.485
973.66	2148.319
973.83	2217.950
974.00	2209.758
974.16	2189.279
974.33	2201.566
974.50	2197.470
974.67	2236.382
974.83	2144.223
975.00	2260.958
975.17	2273.245
975.33	2191.327
975.50	2185.183
975.67	2215.902
975.84	2263.005
976.00	2234.334
976.17	2265.053
976.34	2154.463
976.50	2174.943
976.67	2238.430
976.84	2219.998
977.00	2195.422
977.17	2103.264
977.34	2314.205
977.50	2174.943
977.67	2252.766
977.84	2156.511
978.01	2179.039
978.17	2170.847
978.34	2168.799
978.51	2213.854
978.67	2183.135
978.84	2306.013
979.01	2338.780
979.17	2238.430
979.34	2207.710
979.51	2236.382
979.67	2203.614
979.84	2273.245
980.01	2285.533
980.17	2111.456
980.34	2129.888
980.51	2179.039
980.67	2152.415
980.84	2322.397
981.01	2215.902
981.17	2369.500
981.34	2400.219
981.50	2201.566
981.67	2166.751
981.84	2236.382
982.00	2260.958
982.17	2215.902
982.34	2187.231
982.50	2306.013
982.67	2187.231
982.84	2269.149
983.00	2113.504
983.17	2279.389
983.33	2260.958
983.50	2287.581
983.67	2308.061
983.83	2256.862
984.00	2260.958
984.17	2400.219
984.33	2271.197
984.50	2334.684
984.66	2244.574
984.83	2338.780
985.00	2316.253
985.16	2312.157
985.33	2316.253
985.49	2383.836
985.66	2320.349
985.83	2353.116
985.99	2291.677
986.16	2420.699
986.32	2330.588
986.49	2256.862
986.66	2287.581
986.82	2301.917
986.99	2267.101
987.15	2187.231
987.32	2203.614
987.49	2291.677
987.65	2256.862
987.82	2230.238
987.98	2230.238
988.15	2195.422
988.31	2252.766
988.48	2240.478
988.65	2179.039
988.81	2242.526
988.98	2430.939
989.14	2219.998
989.31	2383.836
989.47	2244.574
989.64	2318.301
989.80	2230.238
989.97	2326.492
990.14	2359.260
990.30	2256.862
990.47	2258.910
990.63	2328.540
990.80	2250.718
990.96	2373.596
991.13	2373.596
991.29	2267.101
991.46	2228.190
991.62	2303.965
991.79	2293.725
991.95	2306.013
992.12	2353.116
992.29	2402.267
992.45	2217.950
992.62	2373.596
992.78	2387.932
992.95	2211.806
993.11	2283.485
993.28	2228.190
993.44	2277.341
993.61	2344.924
993.77	2183.135
993.94	2365.404
994.10	2338.780
994.27	2279.389
994.43	2299.869
994.60	2260.958
994.76	2277.341
994.93	2281.437
995.09	2232.286
995.26	2217.950
995.42	2219.998
995.59	2213.854
995.75	2244.574
995.92	2316.253
996.08	2328.540
996.25	2193.375
996.41	2260.958
996.58	2295.773
996.74	2344.924
996.91	2217.950
997.07	2236.382
997.23	2232.286
997.40	2349.020
997.56	2308.061
997.73	2273.245
997.89	2363.356
998.06	2330.588
998.22	2308.061
998.39	2379.740
998.55	2248.670
998.72	2287.581
998.88	2207.710
999.05	2242.526
999.21	2267.101
999.37	2193.375
999.54	2273.245
999.70	2281.437
999.87	2224.094
1000.03	2260.958
1000.20	2248.670
1000.36	2324.445
1000.52	2357.212
1000.69	2412.507
1000.85	2342.876
1001.02	2369.500
1001.18	2412.507
1001.35	2326.492
1001.51	2332.636
1001.67	2408.411
1001.84	2392.028
1002.00	2349.020
1002.17	2322.397
1002.33	2277.341
1002.50	2281.437
1002.66	2256.862
1002.82	2203.614
1002.99	2193.375
1003.15	2230.238
1003.32	2166.751
1003.48	2248.670
1003.64	2269.149
1003.81	2207.710
1003.97	2330.588
1004.14	2211.806
1004.30	2172.895
1004.46	2150.367
1004.63	2351.068
1004.79	2140.127
1004.95	2277.341
1005.12	2142.175
1005.28	2269.149
1005.45	2289.629
1005.61	2187.231
1005.77	2244.574
1005.94	2291.677
1006.10	2144.223
1006.26	2289.629
1006.43	2240.478
1006.59	2174.943
1006.76	2244.574
1006.92	2265.053
1007.08	2248.670
1007.25	2263.005
1007.41	2303.965
1007.57	2252.766
1007.74	2258.910
1007.90	2267.101
1008.06	2170.847
1008.23	2166.751
1008.39	2351.068
1008.55	2289.629
1008.72	2254.814
1008.88	2308.061
1009.04	2312.157
1009.21	2244.574
1009.37	2193.375
1009.53	2217.950
1009.70	2125.792
1009.86	2133.983
1010.02	2281.437
1010.19	2095.072
1010.35	2154.463
1010.51	2164.703
1010.68	2195.422
1010.84	2144.223
1011.00	2195.422
1011.17	2121.696
1011.33	2164.703
1011.49	2160.607
1011.66	2193.375
1011.82	2226.142
1011.98	2121.696
1012.14	2136.031
1012.31	2136.031
1012.47	2152.415
1012.63	2123.744
1012.80	2150.367
1012.96	2168.799
1013.12	2136.031
1013.29	2162.655
1013.45	2191.327
1013.61	2158.559
1013.77	2156.511
1013.94	2129.888
1014.10	2117.600
1014.26	2113.504
1014.43	2162.655
1014.59	2172.895
1014.75	2183.135
1014.91	2248.670
1015.08	2277.341
1015.24	2131.935
1015.40	2260.958
1015.56	2248.670
1015.73	2154.463
1015.89	2107.360
1016.05	2242.526
1016.21	2103.264
1016.38	2234.334
1016.54	2193.375
1016.70	2099.168
1016.86	2179.039
1017.03	2203.614
1017.19	2217.950
1017.35	2248.670
1017.51	2140.127
1017.68	2119.648
1017.84	2279.389
1018.00	2107.360
1018.16	2131.935
1018.33	2109.408
1018.49	2041.825
1018.65	2181.087
1018.81	2068.448
1018.97	2183.135
1019.14	2144.223
1019.30	2156.511
1019.46	2072.544
1019.62	2004.961
1019.79	2041.825
1019.95	2123.744
1020.11	2035.681
1020.27	2023.393
1020.43	1984.482
1020.60	1957.858
1020.76	1914.851
1020.92	2060.257
1021.08	2041.825
1021.24	2045.921
1021.41	2015.201
1021.57	2086.880
1021.73	1972.194
1021.89	2004.961
1022.05	2033.633
1022.21	2037.729
1022.38	2011.105
1022.54	2066.400
1022.70	1990.626
1022.86	2007.009
1023.02	2019.297
1023.19	1980.386
1023.35	2054.113
1023.51	2033.633
1023.67	2015.201
1023.83	1998.818
1023.99	1945.570
1024.16	1939.426
1024.32	1980.386
1024.48	2004.961
1024.64	2033.633
1024.80	2011.105
1024.96	2031.585
1025.12	2060.257
1025.29	1951.714
1025.45	1933.282
1025.61	2023.393
1025.77	1984.482
1025.93	1947.618
1026.09	1949.666
1026.26	1941.474
1026.42	1861.604
1026.58	1951.714
1026.74	1892.323
1026.90	1955.810
1027.06	2023.393
1027.22	2011.105
1027.38	1957.858
1027.55	1808.356
1027.71	2023.393
1027.87	1923.043
1028.03	1900.515
1028.19	1947.618
1028.35	1945.570
1028.51	1935.330
1028.67	1894.371
1028.83	1894.371
1029.00	1986.530
1029.16	1916.899
1029.32	1937.378
1029.48	1861.604
1029.64	1914.851
1029.80	1849.316
1029.96	1826.788
1030.12	1916.899
1030.28	1957.858
1030.44	1853.412
1030.61	1908.707
1030.77	1859.556
1030.93	1923.043
1031.09	1914.851
1031.25	1785.829
1031.41	1859.556
1031.57	1808.356
1031.73	1904.611
1031.89	1857.508
1032.05	1837.028
1032.21	1884.131
1032.37	1886.179
1032.53	1837.028
1032.69	1830.884
1032.86	1806.308
1033.02	1941.474
1033.18	1855.460
1033.34	1892.323
1033.50	1847.268
1033.66	1859.556
1033.82	1863.652
1033.98	1916.899
1034.14	1822.692
1034.30	1839.076
1034.46	1867.748
1034.62	1871.843
1034.78	1918.947
1034.94	1978.338
1035.10	1847.268
1035.26	1941.474
1035.42	1894.371
1035.58	1937.378
1035.74	1816.548
1035.90	1769.445
1036.06	1884.131
1036.22	1920.995
1036.38	1849.316
1036.54	1828.836
1036.70	1843.172
1036.86	1765.349
1037.02	1849.316
1037.18	1812.452
1037.34	1892.323
1037.50	1763.301
1037.66	1804.260
1037.82	1853.412
1037.98	1918.947
1038.14	1744.869
1038.30	1865.700
1038.46	1824.740
1038.62	1820.644
1038.78	1794.021
1038.94	1724.390
1039.10	1791.973
1039.26	1716.198
1039.42	1814.500
1039.58	1691.622
1039.74	1818.596
1039.90	1808.356
1040.06	1736.678
>>>>>End Spectral Data<<<<<
