SpectraSuite Data File
++++++++++++++++++++++++++++++++++++
Date: Mon Mar 27 19:47:40 EEST 2017
User: TheoProf
Spectrometer Serial Number: USB4C02475
Spectrometer Channel: 0
Integration Time (usec): 426341
Spectra Averaged: 1
Boxcar Smoothing: 0
Correct for Electrical Dark: No
Strobe/Lamp Enabled: No
Correct for Detector Non-linearity: No
Correct for Stray Light: No
Number of Pixels in Spectrum: 3648
>>>>>Begin Spectral Data<<<<<
344.91	1173.486
345.13	1173.486
345.35	1173.486
345.57	1167.342
345.79	1261.549
346.00	3278.798
346.22	2623.448
346.44	2379.740
346.66	2779.094
346.87	2138.079
347.09	2306.013
347.31	2369.500
347.53	2633.688
347.74	2664.407
347.96	2650.072
348.18	2453.467
348.40	2119.648
348.61	2701.271
348.83	2793.429
349.05	2682.839
349.27	2291.677
349.48	2502.618
349.70	2527.193
349.92	2443.227
350.14	2445.275
350.35	2682.839
350.57	2668.503
350.79	2629.592
351.01	3082.193
351.22	2336.732
351.44	2527.193
351.66	2088.928
351.87	2953.171
352.09	2691.031
352.31	2762.710
352.53	2707.415
352.74	2774.998
352.96	2680.791
353.18	2410.459
353.40	2432.987
353.61	2449.371
353.83	2541.529
354.05	2609.112
354.26	2471.898
354.48	2564.057
354.70	2293.725
354.92	2568.153
355.13	2648.024
355.35	2787.285
355.57	2705.367
355.78	2414.555
356.00	2840.533
356.22	2250.718
356.44	2807.765
356.65	2701.271
356.87	2605.016
357.09	2779.094
357.30	2234.334
357.52	2764.758
357.74	2754.518
357.95	2265.053
358.17	2502.618
358.39	2541.529
358.60	2426.843
358.82	2318.301
359.04	2543.577
359.26	2273.245
359.47	2299.869
359.69	2795.477
359.91	2480.090
360.12	2564.057
360.34	2678.743
360.56	2260.958
360.77	2461.658
360.99	2736.086
361.21	2306.013
361.42	2441.179
361.64	2750.422
361.86	2723.798
362.07	3047.378
362.29	2402.267
362.51	2424.795
362.72	2410.459
362.94	2529.241
363.16	2469.850
363.37	2686.935
363.59	2355.164
363.81	2377.692
364.02	3004.370
364.24	2342.876
364.46	2512.858
364.67	2426.843
364.89	2672.599
365.11	2338.780
365.32	2734.038
365.54	2650.072
365.76	2658.263
365.97	2605.016
366.19	2535.385
366.41	2463.706
366.62	2725.846
366.84	2133.983
367.05	2459.610
367.27	2377.692
367.49	2222.046
367.70	2426.843
367.92	2410.459
368.14	2553.817
368.35	2572.249
368.57	2111.456
368.79	2336.732
369.00	2473.946
369.22	2482.138
369.43	2586.585
369.65	2615.256
369.87	2545.625
370.08	2602.968
370.30	2385.884
370.51	2140.127
370.73	2146.271
370.95	2584.537
371.16	2150.367
371.38	2600.920
371.60	2418.651
371.81	2600.920
372.03	2781.142
372.24	2545.625
372.46	2580.441
372.68	2072.544
372.89	2207.710
373.11	2344.924
373.32	2793.429
373.54	2729.942
373.76	2404.315
373.97	2242.526
374.19	2719.702
374.40	2734.038
374.62	2410.459
374.84	2752.470
375.05	2142.175
375.27	2889.684
375.48	2189.279
375.70	2099.168
375.92	2297.821
376.13	2527.193
376.35	2287.581
376.56	2389.980
376.78	2541.529
376.99	2162.655
377.21	2385.884
377.43	2267.101
377.64	2492.378
377.86	2609.112
378.07	2222.046
378.29	2486.234
378.51	2475.994
378.72	2449.371
378.94	2156.511
379.15	2111.456
379.37	2314.205
379.58	2631.640
379.80	2213.854
380.01	2445.275
380.23	2369.500
380.45	2394.075
380.66	2699.223
380.88	2318.301
381.09	2666.455
381.31	2613.208
381.52	2312.157
381.74	2437.083
381.95	2654.168
382.17	2523.098
382.39	2432.987
382.60	2416.603
382.82	2256.862
383.03	2338.780
383.25	2064.352
383.46	2508.762
383.68	2269.149
383.89	2740.182
384.11	2285.533
384.32	2125.792
384.54	2463.706
384.76	2398.171
384.97	2166.751
385.19	1955.810
385.40	2478.042
385.62	2406.363
385.83	2519.002
386.05	2078.688
386.26	2359.260
386.48	2322.397
386.69	2244.574
386.91	2312.157
387.12	2349.020
387.34	2201.566
387.55	1908.707
387.77	2086.880
387.98	2181.087
388.20	2457.562
388.41	2340.828
388.63	2471.898
388.84	2408.411
389.06	2508.762
389.27	2428.891
389.49	2289.629
389.70	2519.002
389.92	2179.039
390.13	2265.053
390.35	2041.825
390.56	2572.249
390.78	2222.046
390.99	2193.375
391.21	2469.850
391.42	2430.939
391.64	2136.031
391.85	2113.504
392.07	2027.489
392.28	2027.489
392.50	2342.876
392.71	1929.187
392.93	1970.146
393.14	2514.906
393.36	2527.193
393.57	2328.540
393.79	2217.950
394.00	2279.389
394.22	1890.275
394.43	2076.640
394.65	2263.005
394.86	2285.533
395.08	2187.231
395.29	1888.227
395.50	2279.389
395.72	2183.135
395.93	2672.599
396.15	2480.090
396.36	2076.640
396.58	2574.297
396.79	2281.437
397.01	2240.478
397.22	2086.880
397.44	2248.670
397.65	2047.969
397.87	1781.733
398.08	2217.950
398.29	2201.566
398.51	2740.182
398.72	1976.290
398.94	2201.566
399.15	2179.039
399.37	2320.349
399.58	1945.570
399.80	2039.777
400.01	2066.400
400.22	2236.382
400.44	2387.932
400.65	2400.219
400.87	2185.183
401.08	2330.588
401.30	1927.139
401.51	2310.109
401.72	2312.157
401.94	1871.843
402.15	2031.585
402.37	2045.921
402.58	2074.592
402.80	2148.319
403.01	2045.921
403.22	2275.293
403.44	2252.766
403.65	2056.161
403.87	1947.618
404.08	2275.293
404.30	2043.873
404.51	2054.113
404.72	2203.614
404.94	2129.888
405.15	2340.828
405.37	2144.223
405.58	1974.242
405.79	2050.017
406.01	2365.404
406.22	1964.002
406.44	1955.810
406.65	2166.751
406.86	2164.703
407.08	1908.707
407.29	2009.057
407.51	2002.913
407.72	2543.577
407.93	2236.382
408.15	2054.113
408.36	2187.231
408.58	2133.983
408.79	2127.840
409.00	2230.238
409.22	2064.352
409.43	2082.784
409.64	2320.349
409.86	2076.640
410.07	1949.666
410.29	1843.172
410.50	2152.415
410.71	2215.902
410.93	2041.825
411.14	2158.559
411.35	2385.884
411.57	1978.338
411.78	2047.969
412.00	2052.065
412.21	2527.193
412.42	2076.640
412.64	2215.902
412.85	1865.700
413.06	2197.470
413.28	2121.696
413.49	2035.681
413.70	2375.644
413.92	2258.910
414.13	1767.397
414.34	1880.035
414.56	2308.061
414.77	2363.356
414.98	2002.913
415.20	2138.079
415.41	2117.600
415.63	2004.961
415.84	2111.456
416.05	2209.758
416.27	2031.585
416.48	2140.127
416.69	1980.386
416.91	2054.113
417.12	1906.659
417.33	2125.792
417.55	2097.120
417.76	2355.164
417.97	2066.400
418.19	2219.998
418.40	2133.983
418.61	2031.585
418.83	2082.784
419.04	2047.969
419.25	2219.998
419.46	1990.626
419.68	1968.098
419.89	2230.238
420.10	2021.345
420.32	2129.888
420.53	1908.707
420.74	2238.430
420.96	1945.570
421.17	1826.788
421.38	2195.422
421.60	2162.655
421.81	2000.865
422.02	2060.257
422.23	2269.149
422.45	1855.460
422.66	1818.596
422.87	2004.961
423.09	2244.574
423.30	2166.751
423.51	2156.511
423.73	2054.113
423.94	2254.814
424.15	1798.117
424.36	2201.566
424.58	2113.504
424.79	2176.991
425.00	1984.482
425.22	2093.024
425.43	1994.722
425.64	1837.028
425.85	2009.057
426.07	2107.360
426.28	2105.312
426.49	2015.201
426.71	2125.792
426.92	2082.784
427.13	1929.187
427.34	2199.518
427.56	2480.090
427.77	2025.441
427.98	1929.187
428.19	2025.441
428.41	1918.947
428.62	1910.755
428.83	2236.382
429.04	2009.057
429.26	2152.415
429.47	2166.751
429.68	1908.707
429.89	1976.290
430.11	2058.209
430.32	1765.349
430.53	1914.851
430.74	1972.194
430.96	2060.257
431.17	1875.939
431.38	2191.327
431.59	1972.194
431.81	2029.537
432.02	2021.345
432.23	2043.873
432.44	1994.722
432.66	2346.972
432.87	1984.482
433.08	2093.024
433.29	2136.031
433.51	2068.448
433.72	2037.729
433.93	1873.891
434.14	2093.024
434.35	2211.806
434.57	1978.338
434.78	2013.153
434.99	2121.696
435.20	2179.039
435.42	1996.770
435.63	1980.386
435.84	2168.799
436.05	2023.393
436.26	2050.017
436.48	2015.201
436.69	1892.323
436.90	1990.626
437.11	1994.722
437.32	2027.489
437.54	2068.448
437.75	2365.404
437.96	2260.958
438.17	2097.120
438.38	2095.072
438.60	2174.943
438.81	1949.666
439.02	2035.681
439.23	1918.947
439.44	1845.220
439.66	1947.618
439.87	1937.378
440.08	2093.024
440.29	2142.175
440.50	1964.002
440.72	1927.139
440.93	1865.700
441.14	2019.297
441.35	1970.146
441.56	1890.275
441.77	2078.688
441.99	2056.161
442.20	1992.674
442.41	1966.050
442.62	2047.969
442.83	2185.183
443.04	2058.209
443.26	2000.865
443.47	2478.042
443.68	1945.570
443.89	2084.832
444.10	2039.777
444.31	2199.518
444.53	2332.636
444.74	1937.378
444.95	1871.843
445.16	2015.201
445.37	1964.002
445.58	2121.696
445.80	2140.127
446.01	2248.670
446.22	2252.766
446.43	1730.534
446.64	1941.474
446.85	2047.969
447.06	1970.146
447.28	2050.017
447.49	1920.995
447.70	1988.578
447.91	2068.448
448.12	1785.829
448.33	1996.770
448.54	1961.954
448.76	2095.072
448.97	2205.662
449.18	2088.928
449.39	2150.367
449.60	1992.674
449.81	2207.710
450.02	1988.578
450.23	2105.312
450.45	2310.109
450.66	2086.880
450.87	1949.666
451.08	1896.419
451.29	2289.629
451.50	1853.412
451.71	2015.201
451.92	2418.651
452.13	1998.818
452.35	1894.371
452.56	1927.139
452.77	2084.832
452.98	2158.559
453.19	2123.744
453.40	2074.592
453.61	2408.411
453.82	2041.825
454.03	2047.969
454.25	1847.268
454.46	2017.249
454.67	2166.751
454.88	2138.079
455.09	2158.559
455.30	2156.511
455.51	2123.744
455.72	1986.530
455.93	2076.640
456.14	2219.998
456.35	2226.142
456.56	2070.496
456.78	2054.113
456.99	2166.751
457.20	2265.053
457.41	2074.592
457.62	1968.098
457.83	1871.843
458.04	2279.389
458.25	2254.814
458.46	1972.194
458.67	2394.075
458.88	2213.854
459.09	2039.777
459.30	2226.142
459.51	2072.544
459.73	2107.360
459.94	2248.670
460.15	2031.585
460.36	2228.190
460.57	2226.142
460.78	2179.039
460.99	2185.183
461.20	1828.836
461.41	2029.537
461.62	2271.197
461.83	2492.378
462.04	2353.116
462.25	2330.588
462.46	1961.954
462.67	2033.633
462.88	2219.998
463.09	2619.352
463.30	2099.168
463.51	2105.312
463.72	2420.699
463.93	2306.013
464.15	2351.068
464.36	2387.932
464.57	2138.079
464.78	2246.622
464.99	2197.470
465.20	1894.371
465.41	2090.976
465.62	2125.792
465.83	2162.655
466.04	2113.504
466.25	2146.271
466.46	2228.190
466.67	2162.655
466.88	2138.079
467.09	2133.983
467.30	2267.101
467.51	2082.784
467.72	2236.382
467.93	2095.072
468.14	2109.408
468.35	2207.710
468.56	2047.969
468.77	2236.382
468.98	2531.289
469.19	2232.286
469.40	2318.301
469.61	2269.149
469.82	1986.530
470.03	2179.039
470.24	2090.976
470.45	2521.050
470.66	2101.216
470.87	2205.662
471.08	2236.382
471.29	2205.662
471.50	2219.998
471.71	2213.854
471.92	2129.888
472.13	2430.939
472.34	2238.430
472.55	2312.157
472.76	2252.766
472.97	2191.327
473.18	2457.562
473.39	2074.592
473.60	2310.109
473.81	2172.895
474.01	2318.301
474.22	2263.005
474.43	2174.943
474.64	2211.806
474.85	2263.005
475.06	2183.135
475.27	2324.445
475.48	2281.437
475.69	2174.943
475.90	2428.891
476.11	2482.138
476.32	2172.895
476.53	2537.433
476.74	2254.814
476.95	2066.400
477.16	2265.053
477.37	2570.201
477.58	2318.301
477.79	2365.404
478.00	2453.467
478.21	2170.847
478.41	2183.135
478.62	2166.751
478.83	2367.452
479.04	2306.013
479.25	2136.031
479.46	1939.426
479.67	2133.983
479.88	2201.566
480.09	2367.452
480.30	2437.083
480.51	2691.031
480.72	2373.596
480.93	2344.924
481.14	2097.120
481.34	2287.581
481.55	2045.921
481.76	2267.101
481.97	2328.540
482.18	2308.061
482.39	2109.408
482.60	2193.375
482.81	2293.725
483.02	2033.633
483.23	2414.555
483.44	2344.924
483.65	2289.629
483.85	2027.489
484.06	2422.747
484.27	2109.408
484.48	2084.832
484.69	2133.983
484.90	2240.478
485.11	2183.135
485.32	2076.640
485.53	2308.061
485.73	2813.909
485.94	2228.190
486.15	2043.873
486.36	2285.533
486.57	2066.400
486.78	2295.773
486.99	2189.279
487.20	2246.622
487.41	2570.201
487.61	2035.681
487.82	2230.238
488.03	2340.828
488.24	2097.120
488.45	2158.559
488.66	2209.758
488.87	2236.382
489.08	2443.227
489.28	2457.562
489.49	2252.766
489.70	2338.780
489.91	2289.629
490.12	2127.840
490.33	2131.935
490.54	2076.640
490.74	2213.854
490.95	2201.566
491.16	2217.950
491.37	2465.754
491.58	1968.098
491.79	2033.633
492.00	2011.105
492.20	2158.559
492.41	2170.847
492.62	2027.489
492.83	2328.540
493.04	2400.219
493.25	2258.910
493.45	2033.633
493.66	2340.828
493.87	2242.526
494.08	2109.408
494.29	1961.954
494.50	2226.142
494.70	2424.795
494.91	2504.666
495.12	2166.751
495.33	2168.799
495.54	2711.511
495.75	2357.212
495.95	2232.286
496.16	2279.389
496.37	2424.795
496.58	2185.183
496.79	2299.869
496.99	1925.091
497.20	2488.282
497.41	2541.529
497.62	2117.600
497.83	2236.382
498.04	2281.437
498.24	2359.260
498.45	2201.566
498.66	2287.581
498.87	2217.950
499.08	2529.241
499.28	2031.585
499.49	2076.640
499.70	2254.814
499.91	2330.588
500.12	2084.832
500.32	2187.231
500.53	2287.581
500.74	2582.489
500.95	1996.770
501.15	2140.127
501.36	2146.271
501.57	2131.935
501.78	2154.463
501.99	2093.024
502.19	2045.921
502.40	2226.142
502.61	2226.142
502.82	2203.614
503.02	2156.511
503.23	2281.437
503.44	2213.854
503.65	2322.397
503.86	2154.463
504.06	1945.570
504.27	2392.028
504.48	2047.969
504.69	2179.039
504.89	2093.024
505.10	1998.818
505.31	2170.847
505.52	2346.972
505.72	2060.257
505.93	2009.057
506.14	1843.172
506.35	1914.851
506.55	2052.065
506.76	1996.770
506.97	2093.024
507.18	2383.836
507.38	2306.013
507.59	1908.707
507.80	1994.722
508.01	2252.766
508.21	2217.950
508.42	2400.219
508.63	2109.408
508.84	2082.784
509.04	2093.024
509.25	2111.456
509.46	2203.614
509.67	2093.024
509.87	2082.784
510.08	2219.998
510.29	2119.648
510.49	2238.430
510.70	2234.334
510.91	2203.614
511.12	2164.703
511.32	2025.441
511.53	2164.703
511.74	2056.161
511.94	1923.043
512.15	2093.024
512.36	2160.607
512.57	1804.260
512.77	1832.932
512.98	1802.212
513.19	1949.666
513.39	2045.921
513.60	1961.954
513.81	2328.540
514.01	2271.197
514.22	2349.020
514.43	1994.722
514.64	2013.153
514.84	2424.795
515.05	2158.559
515.26	2054.113
515.46	2172.895
515.67	2322.397
515.88	1890.275
516.08	2043.873
516.29	2117.600
516.50	2074.592
516.70	2041.825
516.91	2273.245
517.12	1853.412
517.32	2056.161
517.53	1984.482
517.74	2015.201
517.95	1845.220
518.15	2197.470
518.36	2095.072
518.57	1763.301
518.77	1982.434
518.98	2121.696
519.19	2170.847
519.39	1826.788
519.60	2041.825
519.80	2428.891
520.01	2105.312
520.22	1970.146
520.42	1976.290
520.63	2201.566
520.84	1925.091
521.04	2060.257
521.25	2187.231
521.46	2029.537
521.66	2023.393
521.87	1824.740
522.08	1849.316
522.28	2111.456
522.49	1861.604
522.70	2086.880
522.90	2015.201
523.11	1865.700
523.31	2029.537
523.52	2107.360
523.73	1910.755
523.93	2101.216
524.14	1912.803
524.35	2041.825
524.55	2082.784
524.76	2273.245
524.97	1955.810
525.17	2035.681
525.38	1914.851
525.58	1957.858
525.79	2107.360
526.00	1945.570
526.20	2201.566
526.41	2142.175
526.61	2037.729
526.82	1955.810
527.03	1861.604
527.23	2281.437
527.44	1699.814
527.64	2039.777
527.85	2113.504
528.06	2127.840
528.26	1955.810
528.47	1974.242
528.68	2031.585
528.88	2174.943
529.09	1869.795
529.29	2058.209
529.50	1869.795
529.70	2023.393
529.91	1964.002
530.12	1873.891
530.32	1992.674
530.53	2226.142
530.73	2017.249
530.94	1916.899
531.15	2093.024
531.35	2078.688
531.56	1957.858
531.76	2054.113
531.97	2191.327
532.17	1961.954
532.38	1892.323
532.59	1939.426
532.79	1980.386
533.00	2029.537
533.20	1888.227
533.41	1888.227
533.61	1972.194
533.82	2093.024
534.03	2015.201
534.23	2013.153
534.44	1933.282
534.64	2072.544
534.85	1865.700
535.05	1894.371
535.26	1832.932
535.46	1949.666
535.67	1945.570
535.88	1974.242
536.08	1966.050
536.29	2023.393
536.49	1945.570
536.70	1931.235
536.90	2277.341
537.11	2359.260
537.31	1972.194
537.52	1867.748
537.72	2021.345
537.93	2047.969
538.13	2070.496
538.34	2002.913
538.55	2246.622
538.75	1837.028
538.96	2060.257
539.16	1865.700
539.37	2113.504
539.57	1812.452
539.78	2199.518
539.98	1834.980
540.19	2359.260
540.39	1978.338
540.60	2052.065
540.80	1806.308
541.01	2019.297
541.21	1880.035
541.42	2011.105
541.62	2037.729
541.83	1902.563
542.03	2133.983
542.24	2041.825
542.44	2125.792
542.65	1933.282
542.85	1906.659
543.06	1904.611
543.26	1959.906
543.47	2066.400
543.67	2148.319
543.88	2013.153
544.08	2121.696
544.29	1912.803
544.49	1914.851
544.70	1714.150
544.90	1953.762
545.11	2144.223
545.31	1978.338
545.52	1945.570
545.72	2011.105
545.93	1937.378
546.13	1896.419
546.34	1814.500
546.54	1933.282
546.75	2007.009
546.95	2041.825
547.15	1847.268
547.36	2056.161
547.56	2023.393
547.77	2181.087
547.97	1867.748
548.18	1933.282
548.38	2084.832
548.59	2246.622
548.79	1888.227
549.00	1751.013
549.20	2037.729
549.41	1947.618
549.61	1980.386
549.81	1933.282
550.02	1998.818
550.22	2043.873
550.43	1847.268
550.63	1875.939
550.84	2027.489
551.04	1935.330
551.25	2054.113
551.45	1898.467
551.65	1880.035
551.86	2228.190
552.06	1902.563
552.27	1732.582
552.47	1826.788
552.68	2109.408
552.88	2013.153
553.08	1970.146
553.29	1863.652
553.49	1900.515
553.70	1929.187
553.90	1800.165
554.11	2039.777
554.31	2172.895
554.51	2023.393
554.72	1968.098
554.92	2056.161
555.13	2050.017
555.33	1880.035
555.53	2013.153
555.74	1970.146
555.94	2093.024
556.15	2015.201
556.35	2043.873
556.56	2310.109
556.76	2068.448
556.96	2064.352
557.17	2011.105
557.37	2090.976
557.58	1890.275
557.78	2023.393
557.98	1818.596
558.19	2029.537
558.39	1994.722
558.59	1775.589
558.80	1869.795
559.00	1910.755
559.21	1961.954
559.41	1923.043
559.61	1953.762
559.82	2193.375
560.02	2111.456
560.23	1828.836
560.43	1794.021
560.63	2062.305
560.84	1869.795
561.04	1945.570
561.24	2011.105
561.45	2011.105
561.65	1685.478
561.85	1875.939
562.06	1933.282
562.26	1914.851
562.47	2107.360
562.67	1865.700
562.87	1824.740
563.08	1865.700
563.28	2033.633
563.48	1955.810
563.69	1787.877
563.89	1974.242
564.09	1988.578
564.30	1902.563
564.50	2123.744
564.70	2043.873
564.91	1990.626
565.11	1691.622
565.31	2050.017
565.52	1880.035
565.72	2054.113
565.92	1976.290
566.13	1841.124
566.33	2189.279
566.53	1916.899
566.74	1910.755
566.94	1912.803
567.14	2172.895
567.35	1974.242
567.55	2017.249
567.75	1904.611
567.96	1828.836
568.16	1865.700
568.36	1949.666
568.57	2031.585
568.77	1708.006
568.97	2021.345
569.18	1972.194
569.38	1853.412
569.58	1980.386
569.79	1998.818
569.99	1992.674
570.19	1970.146
570.39	1966.050
570.60	1826.788
570.80	1734.630
571.00	1769.445
571.21	1841.124
571.41	1816.548
571.61	2148.319
571.82	1953.762
572.02	1882.083
572.22	1906.659
572.42	1914.851
572.63	1871.843
572.83	1701.862
573.03	2041.825
573.24	1945.570
573.44	1800.165
573.64	2158.559
573.84	2078.688
574.05	1902.563
574.25	2115.552
574.45	2166.751
574.66	2000.865
574.86	2004.961
575.06	1923.043
575.26	1845.220
575.47	2058.209
575.67	1834.980
575.87	1937.378
576.07	1814.500
576.28	1800.165
576.48	2015.201
576.68	1843.172
576.88	1810.404
577.09	1955.810
577.29	1814.500
577.49	1847.268
577.69	2031.585
577.90	2301.917
578.10	1984.482
578.30	1943.522
578.50	1877.987
578.71	1961.954
578.91	1802.212
579.11	1904.611
579.31	1908.707
579.52	1877.987
579.72	1847.268
579.92	1974.242
580.12	1794.021
580.33	1955.810
580.53	1949.666
580.73	1773.541
580.93	2002.913
581.13	2248.670
581.34	1839.076
581.54	1931.235
581.74	1943.522
581.94	1863.652
582.15	1882.083
582.35	1783.781
582.55	2035.681
582.75	1853.412
582.95	1785.829
583.16	1691.622
583.36	2101.216
583.56	1662.951
583.76	1646.567
583.96	1810.404
584.17	1859.556
584.37	1916.899
584.57	1927.139
584.77	1757.157
584.97	1896.419
585.18	1931.235
585.38	1912.803
585.58	1894.371
585.78	1966.050
585.98	2232.286
586.19	1839.076
586.39	2078.688
586.59	1847.268
586.79	1986.530
586.99	1763.301
587.20	1949.666
587.40	1841.124
587.60	1701.862
587.80	1796.069
588.00	1996.770
588.20	2064.352
588.41	2078.688
588.61	1845.220
588.81	1920.995
589.01	1990.626
589.21	2025.441
589.41	1880.035
589.62	1937.378
589.82	1662.951
590.02	1724.390
590.22	1859.556
590.42	1843.172
590.62	2154.463
590.83	1798.117
591.03	1906.659
591.23	1771.493
591.43	2158.559
591.63	1894.371
591.83	1920.995
592.03	1955.810
592.24	1824.740
592.44	2009.057
592.64	1617.895
592.84	1832.932
593.04	1810.404
593.24	1920.995
593.44	1925.091
593.65	1853.412
593.85	2097.120
594.05	1994.722
594.25	2086.880
594.45	1914.851
594.65	1880.035
594.85	1931.235
595.06	1855.460
595.26	1920.995
595.46	1714.150
595.66	1968.098
595.86	1679.334
596.06	1769.445
596.26	1742.821
596.46	1726.438
596.66	1959.906
596.87	1845.220
597.07	1920.995
597.27	1751.013
597.47	1857.508
597.67	2197.470
597.87	2086.880
598.07	1644.519
598.27	1906.659
598.47	1824.740
598.67	1990.626
598.88	1726.438
599.08	1851.364
599.28	1634.279
599.48	1839.076
599.68	1998.818
599.88	1734.630
600.08	1933.282
600.28	2064.352
600.48	1814.500
600.68	1916.899
600.88	2052.065
601.09	1908.707
601.29	1791.973
601.49	1802.212
601.69	1964.002
601.89	1822.692
602.09	1736.678
602.29	1910.755
602.49	2111.456
602.69	1980.386
602.89	2039.777
603.09	2045.921
603.29	1898.467
603.49	2058.209
603.69	1781.733
603.90	1783.781
604.10	2193.375
604.30	1916.899
604.50	1916.899
604.70	1902.563
604.90	1947.618
605.10	1767.397
605.30	2127.840
605.50	1898.467
605.70	1980.386
605.90	2097.120
606.10	1964.002
606.30	1736.678
606.50	1859.556
606.70	1779.685
606.90	1742.821
607.10	2074.592
607.30	1753.061
607.50	1882.083
607.70	2086.880
607.90	1849.316
608.10	1675.238
608.30	1906.659
608.50	2082.784
608.70	1789.925
608.90	1910.755
609.11	1937.378
609.31	1662.951
609.51	1859.556
609.71	1943.522
609.91	1773.541
610.11	1910.755
610.31	1789.925
610.51	1783.781
610.71	2017.249
610.91	1841.124
611.11	2009.057
611.31	1771.493
611.51	1837.028
611.71	1724.390
611.91	1751.013
612.11	1847.268
612.31	2185.183
612.51	1798.117
612.71	1679.334
612.91	1871.843
613.11	1931.235
613.31	2060.257
613.51	2027.489
613.71	1882.083
613.91	2080.736
614.11	1945.570
614.31	1769.445
614.50	2033.633
614.70	2146.271
614.90	1882.083
615.10	1986.530
615.30	1771.493
615.50	1791.973
615.70	1964.002
615.90	1785.829
616.10	1855.460
616.30	2162.655
616.50	1980.386
616.70	2009.057
616.90	1834.980
617.10	1974.242
617.30	2080.736
617.50	1785.829
617.70	1910.755
617.90	1783.781
618.10	1791.973
618.30	2070.496
618.50	1945.570
618.70	2011.105
618.90	2037.729
619.10	2027.489
619.30	1908.707
619.49	1751.013
619.69	1773.541
619.89	1841.124
620.09	1875.939
620.29	1802.212
620.49	1859.556
620.69	1861.604
620.89	1964.002
621.09	1964.002
621.29	1791.973
621.49	1734.630
621.69	1951.714
621.89	2113.504
622.09	1949.666
622.29	1863.652
622.48	2017.249
622.68	1816.548
622.88	1923.043
623.08	1933.282
623.28	1910.755
623.48	1626.087
623.68	1980.386
623.88	1769.445
624.08	1849.316
624.28	1869.795
624.48	1867.748
624.67	1791.973
624.87	2047.969
625.07	2074.592
625.27	2037.729
625.47	2002.913
625.67	1904.611
625.87	1810.404
626.07	1976.290
626.27	1837.028
626.47	1855.460
626.66	1810.404
626.86	2326.492
627.06	1814.500
627.26	1890.275
627.46	1845.220
627.66	1927.139
627.86	1845.220
628.06	1849.316
628.25	1900.515
628.45	1880.035
628.65	1939.426
628.85	2058.209
629.05	1837.028
629.25	1859.556
629.45	1890.275
629.65	1679.334
629.84	1779.685
630.04	1998.818
630.24	2047.969
630.44	1943.522
630.64	1939.426
630.84	2066.400
631.04	1783.781
631.23	1920.995
631.43	1933.282
631.63	2027.489
631.83	1783.781
632.03	1880.035
632.23	2146.271
632.42	1849.316
632.62	1890.275
632.82	1970.146
633.02	2183.135
633.22	1828.836
633.42	1826.788
633.62	1871.843
633.81	1916.899
634.01	1914.851
634.21	2093.024
634.41	1968.098
634.61	2136.031
634.80	2025.441
635.00	1978.338
635.20	1789.925
635.40	1920.995
635.60	1904.611
635.80	1820.644
635.99	1923.043
636.19	1705.958
636.39	2045.921
636.59	2027.489
636.79	2205.662
636.98	1994.722
637.18	1980.386
637.38	1949.666
637.58	1892.323
637.78	2015.201
637.97	1783.781
638.17	1880.035
638.37	2025.441
638.57	1710.054
638.77	2144.223
638.96	1843.172
639.16	2013.153
639.36	2066.400
639.56	1912.803
639.76	1974.242
639.95	1843.172
640.15	1880.035
640.35	1794.021
640.55	1777.637
640.75	2269.149
640.94	1761.253
641.14	1828.836
641.34	2047.969
641.54	1808.356
641.73	2230.238
641.93	2011.105
642.13	1869.795
642.33	2070.496
642.53	1759.205
642.72	2054.113
642.92	2107.360
643.12	1814.500
643.32	1988.578
643.51	2017.249
643.71	1753.061
643.91	1988.578
644.11	1873.891
644.30	1951.714
644.50	1753.061
644.70	1880.035
644.90	1929.187
645.09	2150.367
645.29	1781.733
645.49	1970.146
645.69	1961.954
645.88	1959.906
646.08	1681.382
646.28	2191.327
646.48	1832.932
646.67	1896.419
646.87	1828.836
647.07	2045.921
647.26	2166.751
647.46	1744.869
647.66	1857.508
647.86	1877.987
648.05	1902.563
648.25	2318.301
648.45	1843.172
648.65	1816.548
648.84	1730.534
649.04	1927.139
649.24	2273.245
649.43	1621.991
649.63	2146.271
649.83	2080.736
650.03	2000.865
650.22	1968.098
650.42	1966.050
650.62	1896.419
650.81	1761.253
651.01	2041.825
651.21	1994.722
651.40	1943.522
651.60	1837.028
651.80	1961.954
652.00	2115.552
652.19	2023.393
652.39	2230.238
652.59	1945.570
652.78	1968.098
652.98	1863.652
653.18	1820.644
653.37	1920.995
653.57	1908.707
653.77	1798.117
653.96	1826.788
654.16	2068.448
654.36	1791.973
654.55	2047.969
654.75	2035.681
654.95	1724.390
655.14	1839.076
655.34	2088.928
655.54	1916.899
655.73	1783.781
655.93	2494.426
656.13	1855.460
656.32	1828.836
656.52	1798.117
656.72	1937.378
656.91	2039.777
657.11	1916.899
657.31	1949.666
657.50	2138.079
657.70	2043.873
657.90	1794.021
658.09	1904.611
658.29	1853.412
658.49	1798.117
658.68	2062.305
658.88	1998.818
659.07	1851.364
659.27	2076.640
659.47	1857.508
659.66	1769.445
659.86	1802.212
660.06	1822.692
660.25	1875.939
660.45	2027.489
660.64	2187.231
660.84	1773.541
661.04	1990.626
661.23	1910.755
661.43	1867.748
661.63	1861.604
661.82	1814.500
662.02	1929.187
662.21	2125.792
662.41	2082.784
662.61	1937.378
662.80	1755.109
663.00	1751.013
663.19	1976.290
663.39	2162.655
663.59	2062.305
663.78	1812.452
663.98	2103.264
664.17	2166.751
664.37	1945.570
664.57	2031.585
664.76	2158.559
664.96	1791.973
665.15	1658.855
665.35	1699.814
665.55	1937.378
665.74	1884.131
665.94	1953.762
666.13	1875.939
666.33	1927.139
666.53	1814.500
666.72	1961.954
666.92	1834.980
667.11	1859.556
667.31	1781.733
667.50	2031.585
667.70	1990.626
667.90	1955.810
668.09	1763.301
668.29	1986.530
668.48	1861.604
668.68	2125.792
668.87	1767.397
669.07	1859.556
669.26	1906.659
669.46	1857.508
669.66	1984.482
669.85	1796.069
670.05	1800.165
670.24	1982.434
670.44	1982.434
670.63	1890.275
670.83	1970.146
671.02	1994.722
671.22	1951.714
671.42	1845.220
671.61	1757.157
671.81	1982.434
672.00	1834.980
672.20	1918.947
672.39	1912.803
672.59	1791.973
672.78	1890.275
672.98	1908.707
673.17	1834.980
673.37	2002.913
673.56	1988.578
673.76	2023.393
673.95	1806.308
674.15	1664.999
674.34	2011.105
674.54	1794.021
674.73	1978.338
674.93	2060.257
675.13	1916.899
675.32	1929.187
675.52	1996.770
675.71	1959.906
675.91	1968.098
676.10	2025.441
676.30	1767.397
676.49	1953.762
676.69	2084.832
676.88	1865.700
677.08	1916.899
677.27	1781.733
677.47	1972.194
677.66	2103.264
677.86	2125.792
678.05	2156.511
678.24	1869.795
678.44	2062.305
678.63	1912.803
678.83	2101.216
679.02	1785.829
679.22	2084.832
679.41	2334.684
679.61	1773.541
679.80	2125.792
680.00	1798.117
680.19	1982.434
680.39	2060.257
680.58	2007.009
680.78	1822.692
680.97	2156.511
681.17	1834.980
681.36	1980.386
681.56	1785.829
681.75	1990.626
681.94	2127.840
682.14	2007.009
682.33	1978.338
682.53	1976.290
682.72	1808.356
682.92	1970.146
683.11	2172.895
683.31	1855.460
683.50	1871.843
683.69	1877.987
683.89	1882.083
684.08	1953.762
684.28	1939.426
684.47	1935.330
684.67	2021.345
684.86	1652.711
685.06	1748.965
685.25	1988.578
685.44	2021.345
685.64	1949.666
685.83	1841.124
686.03	1955.810
686.22	2043.873
686.42	1945.570
686.61	1826.788
686.80	1914.851
687.00	1591.272
687.19	2078.688
687.39	1748.965
687.58	1847.268
687.77	2086.880
687.97	2004.961
688.16	2027.489
688.36	1990.626
688.55	1914.851
688.74	2275.293
688.94	2093.024
689.13	2140.127
689.33	1865.700
689.52	1912.803
689.71	1773.541
689.91	1900.515
690.10	1667.047
690.30	1867.748
690.49	2109.408
690.68	2027.489
690.88	1925.091
691.07	1923.043
691.27	2076.640
691.46	2074.592
691.65	2027.489
691.85	2072.544
692.04	1892.323
692.23	1988.578
692.43	2095.072
692.62	1964.002
692.82	1863.652
693.01	1923.043
693.20	1798.117
693.40	1994.722
693.59	1923.043
693.78	1941.474
693.98	1945.570
694.17	1912.803
694.36	2027.489
694.56	1910.755
694.75	1931.235
694.94	2195.422
695.14	1933.282
695.33	1906.659
695.53	2080.736
695.72	2004.961
695.91	2052.065
696.11	2007.009
696.30	1927.139
696.49	1894.371
696.69	2133.983
696.88	1867.748
697.07	1929.187
697.27	1802.212
697.46	1943.522
697.65	2127.840
697.85	1861.604
698.04	2062.305
698.23	1867.748
698.43	2088.928
698.62	2043.873
698.81	1935.330
699.01	2125.792
699.20	1900.515
699.39	1941.474
699.58	1943.522
699.78	1898.467
699.97	2205.662
700.16	1802.212
700.36	1916.899
700.55	1765.349
700.74	2060.257
700.94	1830.884
701.13	1996.770
701.32	2136.031
701.52	2084.832
701.71	1859.556
701.90	1814.500
702.09	2029.537
702.29	2209.758
702.48	2033.633
702.67	1953.762
702.87	2084.832
703.06	1966.050
703.25	1992.674
703.44	1974.242
703.64	2215.902
703.83	1961.954
704.02	2133.983
704.22	1978.338
704.41	1978.338
704.60	1939.426
704.79	1978.338
704.99	2052.065
705.18	1794.021
705.37	2056.161
705.56	2021.345
705.76	1937.378
705.95	2074.592
706.14	1914.851
706.33	1800.165
706.53	1925.091
706.72	1972.194
706.91	2019.297
707.11	1841.124
707.30	1765.349
707.49	2066.400
707.68	1949.666
707.88	1925.091
708.07	1964.002
708.26	2142.175
708.45	1904.611
708.64	1865.700
708.84	2230.238
709.03	1830.884
709.22	1894.371
709.41	2107.360
709.61	1769.445
709.80	2131.935
709.99	2019.297
710.18	2232.286
710.38	2127.840
710.57	2039.777
710.76	1841.124
710.95	2052.065
711.14	2074.592
711.34	1982.434
711.53	1884.131
711.72	1929.187
711.91	1925.091
712.11	2142.175
712.30	1966.050
712.49	1986.530
712.68	1925.091
712.87	2043.873
713.07	1941.474
713.26	2007.009
713.45	2127.840
713.64	2080.736
713.83	2029.537
714.03	1949.666
714.22	2043.873
714.41	2037.729
714.60	1949.666
714.79	1839.076
714.99	1888.227
715.18	1904.611
715.37	2029.537
715.56	2045.921
715.75	2109.408
715.94	2242.526
716.14	1824.740
716.33	1994.722
716.52	1996.770
716.71	2045.921
716.90	1857.508
717.10	2078.688
717.29	1914.851
717.48	2148.319
717.67	1957.858
717.86	1937.378
718.05	1904.611
718.24	2078.688
718.44	2060.257
718.63	2007.009
718.82	2297.821
719.01	2037.729
719.20	1845.220
719.39	2205.662
719.59	1595.368
719.78	1892.323
719.97	2093.024
720.16	2144.223
720.35	2076.640
720.54	2142.175
720.73	1959.906
720.93	1814.500
721.12	1953.762
721.31	2109.408
721.50	1898.467
721.69	2080.736
721.88	1841.124
722.07	2179.039
722.27	1961.954
722.46	1839.076
722.65	1992.674
722.84	1920.995
723.03	1851.364
723.22	1957.858
723.41	1869.795
723.60	2207.710
723.79	2019.297
723.99	1845.220
724.18	1972.194
724.37	1994.722
724.56	2097.120
724.75	1961.954
724.94	2050.017
725.13	2324.445
725.32	2076.640
725.51	1773.541
725.71	1955.810
725.90	1961.954
726.09	2052.065
726.28	2047.969
726.47	1763.301
726.66	2021.345
726.85	1873.891
727.04	1916.899
727.23	1884.131
727.42	2078.688
727.61	1863.652
727.81	2144.223
728.00	2314.205
728.19	2099.168
728.38	1880.035
728.57	2025.441
728.76	2125.792
728.95	2222.046
729.14	1916.899
729.33	2011.105
729.52	1953.762
729.71	1929.187
729.90	2007.009
730.09	1740.773
730.28	1994.722
730.48	2146.271
730.67	1959.906
730.86	2015.201
731.05	1898.467
731.24	1800.165
731.43	1953.762
731.62	2047.969
731.81	1959.906
732.00	2076.640
732.19	2174.943
732.38	1865.700
732.57	1818.596
732.76	1800.165
732.95	1834.980
733.14	1759.205
733.33	1920.995
733.52	1988.578
733.71	1882.083
733.90	1802.212
734.09	2236.382
734.28	1992.674
734.47	1939.426
734.66	2047.969
734.85	2164.703
735.04	2064.352
735.23	1923.043
735.42	1929.187
735.61	2117.600
735.81	1912.803
736.00	1927.139
736.19	1937.378
736.38	1834.980
736.57	2072.544
736.76	1986.530
736.95	1814.500
737.14	1947.618
737.33	1912.803
737.52	1724.390
737.71	1906.659
737.90	2054.113
738.09	2072.544
738.28	2062.305
738.47	2099.168
738.66	1875.939
738.85	2031.585
739.04	1875.939
739.22	1761.253
739.41	1955.810
739.60	1968.098
739.79	1763.301
739.98	1916.899
740.17	1755.109
740.36	2041.825
740.55	1918.947
740.74	2043.873
740.93	1994.722
741.12	2207.710
741.31	1957.858
741.50	1978.338
741.69	1857.508
741.88	1847.268
742.07	1818.596
742.26	1912.803
742.45	1810.404
742.64	2176.991
742.83	1916.899
743.02	1945.570
743.21	2299.869
743.40	1994.722
743.59	1998.818
743.78	1785.829
743.97	1994.722
744.16	1806.308
744.34	1771.493
744.53	2045.921
744.72	1945.570
744.91	1877.987
745.10	1972.194
745.29	2056.161
745.48	2115.552
745.67	1974.242
745.86	1949.666
746.05	2109.408
746.24	1873.891
746.43	1974.242
746.62	1994.722
746.81	1898.467
747.00	1898.467
747.18	2215.902
747.37	1925.091
747.56	2138.079
747.75	1935.330
747.94	2183.135
748.13	2013.153
748.32	2093.024
748.51	2058.209
748.70	2338.780
748.89	1970.146
749.08	1933.282
749.26	1970.146
749.45	1892.323
749.64	1880.035
749.83	1847.268
750.02	1900.515
750.21	2144.223
750.40	2027.489
750.59	2121.696
750.78	2213.854
750.96	2041.825
751.15	1877.987
751.34	1988.578
751.53	2385.884
751.72	1927.139
751.91	1863.652
752.10	2025.441
752.29	1882.083
752.47	1886.179
752.66	1949.666
752.85	1906.659
753.04	2150.367
753.23	1929.187
753.42	2172.895
753.61	2025.441
753.80	1968.098
753.98	2144.223
754.17	1902.563
754.36	1849.316
754.55	1767.397
754.74	2226.142
754.93	2076.640
755.12	2027.489
755.30	1705.958
755.49	2097.120
755.68	2009.057
755.87	1925.091
756.06	2009.057
756.25	1873.891
756.43	2009.057
756.62	1873.891
756.81	1906.659
757.00	2283.485
757.19	1890.275
757.38	1882.083
757.56	2000.865
757.75	1972.194
757.94	2058.209
758.13	2056.161
758.32	1818.596
758.51	1974.242
758.69	1869.795
758.88	1974.242
759.07	2066.400
759.26	2037.729
759.45	2011.105
759.63	1943.522
759.82	1720.294
760.01	2056.161
760.20	2033.633
760.39	2041.825
760.57	2080.736
760.76	1845.220
760.95	1800.165
761.14	1857.508
761.33	2140.127
761.51	1998.818
761.70	2152.415
761.89	1906.659
762.08	1783.781
762.27	2113.504
762.45	1935.330
762.64	2007.009
762.83	2273.245
763.02	2043.873
763.21	1974.242
763.39	1943.522
763.58	2009.057
763.77	2133.983
763.96	1957.858
764.14	1863.652
764.33	2015.201
764.52	2101.216
764.71	1988.578
764.89	1961.954
765.08	2260.958
765.27	2144.223
765.46	1888.227
765.65	1966.050
765.83	1886.179
766.02	1847.268
766.21	1968.098
766.40	2172.895
766.58	2107.360
766.77	1982.434
766.96	1988.578
767.15	2138.079
767.33	1847.268
767.52	2086.880
767.71	1880.035
767.90	1933.282
768.08	2138.079
768.27	2129.888
768.46	2037.729
768.64	2047.969
768.83	2015.201
769.02	2007.009
769.21	1931.235
769.39	1906.659
769.58	2095.072
769.77	2314.205
769.96	2103.264
770.14	2076.640
770.33	2115.552
770.52	2250.718
770.70	2076.640
770.89	2072.544
771.08	2017.249
771.27	2121.696
771.45	1943.522
771.64	2078.688
771.83	2195.422
772.01	2072.544
772.20	1896.419
772.39	2152.415
772.57	2158.559
772.76	2363.356
772.95	1902.563
773.14	2281.437
773.32	1867.748
773.51	2158.559
773.70	2045.921
773.88	2312.157
774.07	1871.843
774.26	1916.899
774.44	1953.762
774.63	1892.323
774.82	2009.057
775.00	2240.478
775.19	2136.031
775.38	1906.659
775.56	2070.496
775.75	2230.238
775.94	2105.312
776.12	1830.884
776.31	2027.489
776.50	1998.818
776.68	1990.626
776.87	1996.770
777.06	2019.297
777.24	2035.681
777.43	1929.187
777.62	2066.400
777.80	1982.434
777.99	2275.293
778.18	1990.626
778.36	2058.209
778.55	1951.714
778.74	1964.002
778.92	2101.216
779.11	2082.784
779.29	1916.899
779.48	2027.489
779.67	2129.888
779.85	1796.069
780.04	2189.279
780.23	2072.544
780.41	1898.467
780.60	2015.201
780.79	2144.223
780.97	1920.995
781.16	1990.626
781.34	2090.976
781.53	2363.356
781.72	2056.161
781.90	1984.482
782.09	1910.755
782.28	2529.241
782.46	2070.496
782.65	1826.788
782.83	2007.009
783.02	1812.452
783.21	1968.098
783.39	2123.744
783.58	2095.072
783.76	2138.079
783.95	1920.995
784.14	2222.046
784.32	1882.083
784.51	2385.884
784.69	2209.758
784.88	2117.600
785.06	2060.257
785.25	2111.456
785.44	2011.105
785.62	2021.345
785.81	2109.408
785.99	2191.327
786.18	1955.810
786.37	2043.873
786.55	1927.139
786.74	2088.928
786.92	2117.600
787.11	2136.031
787.29	2119.648
787.48	2017.249
787.67	2215.902
787.85	2265.053
788.04	1976.290
788.22	1949.666
788.41	2383.836
788.59	2033.633
788.78	2072.544
788.96	1994.722
789.15	2322.397
789.34	2050.017
789.52	2043.873
789.71	1896.419
789.89	2099.168
790.08	2197.470
790.26	2060.257
790.45	2285.533
790.63	1951.714
790.82	2156.511
791.00	1808.356
791.19	1896.419
791.38	2310.109
791.56	1920.995
791.75	2004.961
791.93	2037.729
792.12	2172.895
792.30	1982.434
792.49	1923.043
792.67	1986.530
792.86	2052.065
793.04	1974.242
793.23	1970.146
793.41	1970.146
793.60	2181.087
793.78	2099.168
793.97	2217.950
794.15	1968.098
794.34	1976.290
794.52	2211.806
794.71	2265.053
794.89	2117.600
795.08	2250.718
795.26	2007.009
795.45	2078.688
795.63	2283.485
795.82	2015.201
796.00	1984.482
796.19	2236.382
796.37	2168.799
796.56	2144.223
796.74	2084.832
796.93	1787.877
797.11	2101.216
797.30	1933.282
797.48	2148.319
797.67	2052.065
797.85	2027.489
798.04	2101.216
798.22	2185.183
798.41	2240.478
798.59	1929.187
798.77	2019.297
798.96	1937.378
799.14	2217.950
799.33	2056.161
799.51	1980.386
799.70	2142.175
799.88	2121.696
800.07	2004.961
800.25	2168.799
800.44	1976.290
800.62	2183.135
800.80	2080.736
800.99	2316.253
801.17	1990.626
801.36	2041.825
801.54	2424.795
801.73	2176.991
801.91	2140.127
802.10	2058.209
802.28	2039.777
802.46	2127.840
802.65	2146.271
802.83	2291.677
803.02	2277.341
803.20	2381.788
803.39	1726.438
803.57	2062.305
803.75	2052.065
803.94	2013.153
804.12	1912.803
804.31	2011.105
804.49	2080.736
804.67	2043.873
804.86	2101.216
805.04	1902.563
805.23	2172.895
805.41	2076.640
805.59	1968.098
805.78	1920.995
805.96	2418.651
806.15	2287.581
806.33	2099.168
806.51	2007.009
806.70	2287.581
806.88	2131.935
807.07	2050.017
807.25	2226.142
807.43	2097.120
807.62	2095.072
807.80	1875.939
807.99	2070.496
808.17	2088.928
808.35	2510.810
808.54	2023.393
808.72	2129.888
808.90	2371.548
809.09	2338.780
809.27	2103.264
809.46	2187.231
809.64	1998.818
809.82	2330.588
810.01	2162.655
810.19	2172.895
810.37	2015.201
810.56	2193.375
810.74	1894.371
810.92	2226.142
811.11	2138.079
811.29	2318.301
811.48	2031.585
811.66	2066.400
811.84	2275.293
812.03	2256.862
812.21	2265.053
812.39	2234.334
812.58	1949.666
812.76	2308.061
812.94	2170.847
813.13	2295.773
813.31	2123.744
813.49	2480.090
813.68	2369.500
813.86	2158.559
814.04	2197.470
814.23	2179.039
814.41	2074.592
814.59	2035.681
814.78	2349.020
814.96	2260.958
815.14	2240.478
815.33	2414.555
815.51	2279.389
815.69	1964.002
815.87	1947.618
816.06	2394.075
816.24	2416.603
816.42	1966.050
816.61	1990.626
816.79	2318.301
816.97	2195.422
817.16	2007.009
817.34	2258.910
817.52	2133.983
817.70	2621.400
817.89	2191.327
818.07	2111.456
818.25	2060.257
818.44	2428.891
818.62	2109.408
818.80	2224.094
818.98	2035.681
819.17	2240.478
819.35	2346.972
819.53	2222.046
819.72	2166.751
819.90	2189.279
820.08	2004.961
820.26	2138.079
820.45	1914.851
820.63	2652.120
820.81	2025.441
820.99	2224.094
821.18	2193.375
821.36	2453.467
821.54	2342.876
821.73	2205.662
821.91	2176.991
822.09	2375.644
822.27	2443.227
822.46	2346.972
822.64	2265.053
822.82	2484.186
823.00	2340.828
823.19	2445.275
823.37	2371.548
823.55	2336.732
823.73	2289.629
823.91	1906.659
824.10	2359.260
824.28	2396.123
824.46	2140.127
824.64	2168.799
824.83	2346.972
825.01	2146.271
825.19	2045.921
825.37	2154.463
825.56	2275.293
825.74	2172.895
825.92	2219.998
826.10	2463.706
826.28	2222.046
826.47	2131.935
826.65	2424.795
826.83	2199.518
827.01	2109.408
827.19	2758.614
827.38	2512.858
827.56	2627.544
827.74	2314.205
827.92	2285.533
828.10	2211.806
828.29	2342.876
828.47	2303.965
828.65	2160.607
828.83	2146.271
829.01	2271.197
829.20	2330.588
829.38	2174.943
829.56	2283.485
829.74	2160.607
829.92	2242.526
830.10	2273.245
830.29	2113.504
830.47	2310.109
830.65	2029.537
830.83	2568.153
831.01	2133.983
831.20	2191.327
831.38	2138.079
831.56	2297.821
831.74	2512.858
831.92	2275.293
832.10	2197.470
832.29	2303.965
832.47	2252.766
832.65	2287.581
832.83	2277.341
833.01	2346.972
833.19	2043.873
833.37	2310.109
833.56	2140.127
833.74	2326.492
833.92	2158.559
834.10	2105.312
834.28	2508.762
834.46	2615.256
834.64	2183.135
834.83	2324.445
835.01	2617.304
835.19	2369.500
835.37	2201.566
835.55	2267.101
835.73	2346.972
835.91	2070.496
836.09	2416.603
836.28	2269.149
836.46	2062.305
836.64	2191.327
836.82	2064.352
837.00	2516.954
837.18	2170.847
837.36	2383.836
837.54	2432.987
837.72	2254.814
837.91	2201.566
838.09	2306.013
838.27	2484.186
838.45	2258.910
838.63	2244.574
838.81	2545.625
838.99	2353.116
839.17	2428.891
839.35	2742.230
839.53	2519.002
839.72	2539.481
839.90	2236.382
840.08	2068.448
840.26	2383.836
840.44	2086.880
840.62	1998.818
840.80	2576.345
840.98	2678.743
841.16	2430.939
841.34	2121.696
841.52	2281.437
841.70	2283.485
841.89	2277.341
842.07	2236.382
842.25	2389.980
842.43	2299.869
842.61	2596.824
842.79	2363.356
842.97	2021.345
843.15	2453.467
843.33	2179.039
843.51	2254.814
843.69	2119.648
843.87	2441.179
844.05	2443.227
844.23	2455.515
844.41	2193.375
844.59	2285.533
844.77	2320.349
844.95	1875.939
845.13	2256.862
845.31	1953.762
845.50	2494.426
845.68	2359.260
845.86	2195.422
846.04	2375.644
846.22	2289.629
846.40	2117.600
846.58	2103.264
846.76	2207.710
846.94	2463.706
847.12	1978.338
847.30	2256.862
847.48	2326.492
847.66	2420.699
847.84	2150.367
848.02	2269.149
848.20	2656.215
848.38	2502.618
848.56	2535.385
848.74	2205.662
848.92	2058.209
849.10	2463.706
849.28	2359.260
849.46	2293.725
849.64	2176.991
849.82	2387.932
850.00	2496.474
850.18	2224.094
850.36	2240.478
850.54	2480.090
850.72	2412.507
850.90	2443.227
851.08	2068.448
851.26	2619.352
851.44	2344.924
851.62	2072.544
851.80	2293.725
851.98	2686.935
852.16	2562.009
852.34	2285.533
852.52	2375.644
852.70	2289.629
852.87	2031.585
853.05	2351.068
853.23	2133.983
853.41	2478.042
853.59	2680.791
853.77	2465.754
853.95	2496.474
854.13	2265.053
854.31	2310.109
854.49	2248.670
854.67	2252.766
854.85	2103.264
855.03	2330.588
855.21	2424.795
855.39	2377.692
855.57	2125.792
855.75	2191.327
855.93	2240.478
856.11	2516.954
856.28	2191.327
856.46	2052.065
856.64	2459.610
856.82	2179.039
857.00	2076.640
857.18	2269.149
857.36	2338.780
857.54	2226.142
857.72	2289.629
857.90	1890.275
858.08	2428.891
858.26	2160.607
858.44	2320.349
858.61	2336.732
858.79	2219.998
858.97	2359.260
859.15	2510.810
859.33	2115.552
859.51	2236.382
859.69	2138.079
859.87	2310.109
860.05	2301.917
860.23	2105.312
860.40	2252.766
860.58	2351.068
860.76	2125.792
860.94	2215.902
861.12	2389.980
861.30	2330.588
861.48	2056.161
861.66	2033.633
861.84	2295.773
862.01	2627.544
862.19	2072.544
862.37	2121.696
862.55	2191.327
862.73	2299.869
862.91	2013.153
863.09	2275.293
863.27	2205.662
863.44	2232.286
863.62	2160.607
863.80	2383.836
863.98	2314.205
864.16	2265.053
864.34	2138.079
864.52	2322.397
864.69	2408.411
864.87	2244.574
865.05	2074.592
865.23	2164.703
865.41	2240.478
865.59	2326.492
865.76	2281.437
865.94	2357.212
866.12	2019.297
866.30	2392.028
866.48	2232.286
866.66	2035.681
866.83	2246.622
867.01	2267.101
867.19	2179.039
867.37	2428.891
867.55	2359.260
867.73	2375.644
867.90	1980.386
868.08	2693.079
868.26	2035.681
868.44	1990.626
868.62	2254.814
868.79	2355.164
868.97	2187.231
869.15	1978.338
869.33	2023.393
869.51	2371.548
869.69	1943.522
869.86	2191.327
870.04	2394.075
870.22	2052.065
870.40	2260.958
870.57	1984.482
870.75	2111.456
870.93	2162.655
871.11	2213.854
871.29	1880.035
871.46	2131.935
871.64	2140.127
871.82	2097.120
872.00	2637.784
872.18	2258.910
872.35	2371.548
872.53	2322.397
872.71	2119.648
872.89	2461.658
873.06	2263.005
873.24	2105.312
873.42	2297.821
873.60	2277.341
873.77	2443.227
873.95	2203.614
874.13	2467.802
874.31	2263.005
874.49	2099.168
874.66	2209.758
874.84	2148.319
875.02	2299.869
875.20	2322.397
875.37	2205.662
875.55	2211.806
875.73	2090.976
875.91	2295.773
876.08	2023.393
876.26	2314.205
876.44	2109.408
876.61	2271.197
876.79	2777.046
876.97	2158.559
877.15	2291.677
877.32	2103.264
877.50	2269.149
877.68	2322.397
877.86	1820.644
878.03	2529.241
878.21	2176.991
878.39	1994.722
878.56	2142.175
878.74	2043.873
878.92	2174.943
879.10	2267.101
879.27	2211.806
879.45	2373.596
879.63	2189.279
879.80	2224.094
879.98	2045.921
880.16	2265.053
880.34	2211.806
880.51	2379.740
880.69	2097.120
880.87	2439.131
881.04	2439.131
881.22	2412.507
881.40	2234.334
881.57	2232.286
881.75	2478.042
881.93	2459.610
882.10	2523.098
882.28	2373.596
882.46	2162.655
882.63	2525.145
882.81	2176.991
882.99	2076.640
883.16	2203.614
883.34	2482.138
883.52	2146.271
883.69	2162.655
883.87	2291.677
884.05	2287.581
884.22	2301.917
884.40	2160.607
884.58	1916.899
884.75	2420.699
884.93	2263.005
885.11	2394.075
885.28	2023.393
885.46	2320.349
885.64	2146.271
885.81	2252.766
885.99	2138.079
886.17	2066.400
886.34	2273.245
886.52	2428.891
886.70	2232.286
886.87	2445.275
887.05	2201.566
887.22	2240.478
887.40	2598.872
887.58	1990.626
887.75	2193.375
887.93	2379.740
888.11	2117.600
888.28	2133.983
888.46	1882.083
888.63	2099.168
888.81	2199.518
888.99	2230.238
889.16	2129.888
889.34	2127.840
889.51	2244.574
889.69	2510.810
889.87	1955.810
890.04	2072.544
890.22	2099.168
890.39	1744.869
890.57	2426.843
890.75	2289.629
890.92	2430.939
891.10	2322.397
891.27	2183.135
891.45	2260.958
891.63	2179.039
891.80	2195.422
891.98	2295.773
892.15	1880.035
892.33	2287.581
892.51	2213.854
892.68	2144.223
892.86	2168.799
893.03	2625.496
893.21	2387.932
893.38	2459.610
893.56	2334.684
893.74	2232.286
893.91	2121.696
894.09	2230.238
894.26	2428.891
894.44	2199.518
894.61	2211.806
894.79	1933.282
894.96	2242.526
895.14	2336.732
895.32	2441.179
895.49	2035.681
895.67	2125.792
895.84	2191.327
896.02	2379.740
896.19	2121.696
896.37	2281.437
896.54	2146.271
896.72	2387.932
896.89	2365.404
897.07	2465.754
897.25	2529.241
897.42	2322.397
897.60	2449.371
897.77	2263.005
897.95	2256.862
898.12	2346.972
898.30	2318.301
898.47	2117.600
898.65	1920.995
898.82	2090.976
899.00	2404.315
899.17	2387.932
899.35	2363.356
899.52	2422.747
899.70	2322.397
899.87	2269.149
900.05	2254.814
900.22	2351.068
900.40	2242.526
900.57	2312.157
900.75	2408.411
900.92	2248.670
901.10	2197.470
901.27	2207.710
901.45	2328.540
901.62	2383.836
901.80	2095.072
901.97	2101.216
902.15	2238.430
902.32	2359.260
902.50	2125.792
902.67	2101.216
902.85	2424.795
903.02	2396.123
903.20	2113.504
903.37	2052.065
903.54	2566.105
903.72	2387.932
903.89	2230.238
904.07	2152.415
904.24	2308.061
904.42	2179.039
904.59	2117.600
904.77	2236.382
904.94	1955.810
905.12	2238.430
905.29	2068.448
905.47	2328.540
905.64	2285.533
905.81	2156.511
905.99	2007.009
906.16	2490.330
906.34	2201.566
906.51	2195.422
906.69	1972.194
906.86	2166.751
907.03	2158.559
907.21	2127.840
907.38	2232.286
907.56	2203.614
907.73	2412.507
907.91	2312.157
908.08	2326.492
908.25	2283.485
908.43	2545.625
908.60	2408.411
908.78	2265.053
908.95	2346.972
909.13	2334.684
909.30	2324.445
909.47	2295.773
909.65	2516.954
909.82	2412.507
910.00	2117.600
910.17	2320.349
910.34	2572.249
910.52	2119.648
910.69	2232.286
910.87	2117.600
911.04	1994.722
911.21	2496.474
911.39	2332.636
911.56	2328.540
911.73	2232.286
911.91	2174.943
912.08	2529.241
912.26	2224.094
912.43	2543.577
912.60	2238.430
912.78	2158.559
912.95	2496.474
913.13	2330.588
913.30	2412.507
913.47	2541.529
913.65	2310.109
913.82	2336.732
913.99	2158.559
914.17	2467.802
914.34	2316.253
914.51	2326.492
914.69	2416.603
914.86	2445.275
915.03	2457.562
915.21	2133.983
915.38	2205.662
915.56	2533.337
915.73	2136.031
915.90	2162.655
916.08	2205.662
916.25	2631.640
916.42	2082.784
916.60	2297.821
916.77	2236.382
916.94	2353.116
917.12	2179.039
917.29	2240.478
917.46	2007.009
917.64	2273.245
917.81	2314.205
917.98	2002.913
918.16	2303.965
918.33	2342.876
918.50	2297.821
918.67	2238.430
918.85	2240.478
919.02	2185.183
919.19	2416.603
919.37	2332.636
919.54	1990.626
919.71	2260.958
919.89	2166.751
920.06	2504.666
920.23	2430.939
920.41	2240.478
920.58	2109.408
920.75	2244.574
920.92	2056.161
921.10	2027.489
921.27	2056.161
921.44	2480.090
921.62	2000.865
921.79	2731.990
921.96	2357.212
922.13	2504.666
922.31	2281.437
922.48	2138.079
922.65	2039.777
922.82	2176.991
923.00	2564.057
923.17	2299.869
923.34	2369.500
923.52	2226.142
923.69	2408.411
923.86	2457.562
924.03	2322.397
924.21	1939.426
924.38	2400.219
924.55	2265.053
924.72	2299.869
924.90	2207.710
925.07	2613.208
925.24	2289.629
925.41	2359.260
925.59	2306.013
925.76	1970.146
925.93	2408.411
926.10	2396.123
926.28	2215.902
926.45	2629.592
926.62	2095.072
926.79	2445.275
926.96	2246.622
927.14	2449.371
927.31	1947.618
927.48	2189.279
927.65	2437.083
927.83	2482.138
928.00	2258.910
928.17	2058.209
928.34	2031.585
928.51	2375.644
928.69	2244.574
928.86	2242.526
929.03	2437.083
929.20	2174.943
929.37	2320.349
929.55	2428.891
929.72	2336.732
929.89	2265.053
930.06	2170.847
930.23	2484.186
930.41	2379.740
930.58	2486.234
930.75	2420.699
930.92	2090.976
931.09	2242.526
931.27	2256.862
931.44	2152.415
931.61	2435.035
931.78	1931.235
931.95	2078.688
932.12	2101.216
932.30	2322.397
932.47	2373.596
932.64	2627.544
932.81	2240.478
932.98	2136.031
933.16	2289.629
933.33	2416.603
933.50	2215.902
933.67	2373.596
933.84	1912.803
934.01	2166.751
934.18	2351.068
934.36	2095.072
934.53	2189.279
934.70	2353.116
934.87	2027.489
935.04	2033.633
935.21	1970.146
935.38	1943.522
935.56	2306.013
935.73	2209.758
935.90	1943.522
936.07	2138.079
936.24	2185.183
936.41	2213.854
936.58	2117.600
936.76	2424.795
936.93	2121.696
937.10	1906.659
937.27	2197.470
937.44	1845.220
937.61	2105.312
937.78	2254.814
937.95	2254.814
938.13	2056.161
938.30	1955.810
938.47	2402.267
938.64	2041.825
938.81	2045.921
938.98	2226.142
939.15	2011.105
939.32	2195.422
939.49	2217.950
939.66	2121.696
939.84	2113.504
940.01	2033.633
940.18	2256.862
940.35	2111.456
940.52	1933.282
940.69	2168.799
940.86	2219.998
941.03	2041.825
941.20	2058.209
941.37	2105.312
941.54	2060.257
941.71	2035.681
941.89	2244.574
942.06	2238.430
942.23	2232.286
942.40	2516.954
942.57	1974.242
942.74	1966.050
942.91	1900.515
943.08	2453.467
943.25	2283.485
943.42	2164.703
943.59	2299.869
943.76	2125.792
943.93	2037.729
944.10	1832.932
944.27	2174.943
944.44	2273.245
944.61	2002.913
944.79	2084.832
944.96	2090.976
945.13	2330.588
945.30	2101.216
945.47	2127.840
945.64	2267.101
945.81	2189.279
945.98	2240.478
946.15	2039.777
946.32	2265.053
946.49	2107.360
946.66	2097.120
946.83	1953.762
947.00	2228.190
947.17	2316.253
947.34	2029.537
947.51	2043.873
947.68	2070.496
947.85	2037.729
948.02	2039.777
948.19	2166.751
948.36	2422.747
948.53	1976.290
948.70	2023.393
948.87	2215.902
949.04	2072.544
949.21	1894.371
949.38	2156.511
949.55	2084.832
949.72	2050.017
949.89	2105.312
950.06	2045.921
950.23	2203.614
950.40	1857.508
950.57	1974.242
950.74	2373.596
950.91	1955.810
951.08	2082.784
951.25	2047.969
951.42	2170.847
951.59	1978.338
951.76	2090.976
951.93	1988.578
952.10	1953.762
952.27	1916.899
952.44	1927.139
952.61	1994.722
952.77	2078.688
952.94	2039.777
953.11	2164.703
953.28	2021.345
953.45	2127.840
953.62	2125.792
953.79	2179.039
953.96	2281.437
954.13	1974.242
954.30	2211.806
954.47	1785.829
954.64	1990.626
954.81	2076.640
954.98	2080.736
955.15	1884.131
955.32	1908.707
955.49	2072.544
955.65	2086.880
955.82	2219.998
955.99	2138.079
956.16	2242.526
956.33	2119.648
956.50	1880.035
956.67	2308.061
956.84	2297.821
957.01	1998.818
957.18	2121.696
957.35	2074.592
957.52	2156.511
957.68	2000.865
957.85	1929.187
958.02	2105.312
958.19	1757.157
958.36	2023.393
958.53	2267.101
958.70	2109.408
958.87	1834.980
959.04	2027.489
959.21	2222.046
959.37	2252.766
959.54	2105.312
959.71	1757.157
959.88	1923.043
960.05	2017.249
960.22	1744.869
960.39	2068.448
960.56	1978.338
960.72	1908.707
960.89	2797.525
961.06	2072.544
961.23	2127.840
961.40	2443.227
961.57	2080.736
961.74	1923.043
961.90	2166.751
962.07	2113.504
962.24	2193.375
962.41	2084.832
962.58	2162.655
962.75	2144.223
962.92	2148.319
963.08	2119.648
963.25	1984.482
963.42	2045.921
963.59	1783.781
963.76	1914.851
963.93	2277.341
964.10	2017.249
964.26	2439.131
964.43	2121.696
964.60	2072.544
964.77	2125.792
964.94	1902.563
965.10	1978.338
965.27	1736.678
965.44	2078.688
965.61	1916.899
965.78	2355.164
965.95	2301.917
966.11	2285.533
966.28	2117.600
966.45	2111.456
966.62	2095.072
966.79	2209.758
966.95	2013.153
967.12	2256.862
967.29	1974.242
967.46	2191.327
967.63	2207.710
967.79	2195.422
967.96	2111.456
968.13	2056.161
968.30	2185.183
968.47	1898.467
968.63	2195.422
968.80	2168.799
968.97	2121.696
969.14	2258.910
969.31	1783.781
969.47	2035.681
969.64	2301.917
969.81	2111.456
969.98	2103.264
970.14	1968.098
970.31	1941.474
970.48	2009.057
970.65	2244.574
970.81	2293.725
970.98	2242.526
971.15	2234.334
971.32	1894.371
971.48	2170.847
971.65	2052.065
971.82	2035.681
971.99	2133.983
972.15	2146.271
972.32	2052.065
972.49	2283.485
972.66	2381.788
972.82	2107.360
972.99	2097.120
973.16	2402.267
973.33	2101.216
973.49	2326.492
973.66	1998.818
973.83	2394.075
974.00	1832.932
974.16	2084.832
974.33	2498.522
974.50	2191.327
974.67	2111.456
974.83	2099.168
975.00	2166.751
975.17	2326.492
975.33	2099.168
975.50	2310.109
975.67	2160.607
975.84	2041.825
976.00	2199.518
976.17	2312.157
976.34	1990.626
976.50	2371.548
976.67	2054.113
976.84	2234.334
977.00	1875.939
977.17	1941.474
977.34	2555.865
977.50	2088.928
977.67	2320.349
977.84	2144.223
978.01	2078.688
978.17	2385.884
978.34	2072.544
978.51	2217.950
978.67	2146.271
978.84	2174.943
979.01	2475.994
979.17	1986.530
979.34	2330.588
979.51	2166.751
979.67	2240.478
979.84	2553.817
980.01	2490.330
980.17	2238.430
980.34	2045.921
980.51	2279.389
980.67	2207.710
980.84	2373.596
981.01	2293.725
981.17	2246.622
981.34	2650.072
981.50	2121.696
981.67	2187.231
981.84	2406.363
982.00	2527.193
982.17	2271.197
982.34	2097.120
982.50	2656.215
982.67	2338.780
982.84	2447.323
983.00	1982.434
983.17	2191.327
983.33	2349.020
983.50	2123.744
983.67	2336.732
983.83	2099.168
984.00	2344.924
984.17	2469.850
984.33	2396.123
984.50	1994.722
984.66	2441.179
984.83	2306.013
985.00	2242.526
985.16	2527.193
985.33	2285.533
985.49	2355.164
985.66	2312.157
985.83	2267.101
985.99	1990.626
986.16	2527.193
986.32	2164.703
986.49	2166.751
986.66	2316.253
986.82	2244.574
986.99	2152.415
987.15	1898.467
987.32	2283.485
987.49	2199.518
987.65	2197.470
987.82	2150.367
987.98	2162.655
988.15	2355.164
988.31	2199.518
988.48	2301.917
988.65	2328.540
988.81	2215.902
988.98	2328.540
989.14	2136.031
989.31	2582.489
989.47	2310.109
989.64	2330.588
989.80	2025.441
989.97	2441.179
990.14	2594.776
990.30	2228.190
990.47	2291.677
990.63	2424.795
990.80	2068.448
990.96	2504.666
991.13	2469.850
991.29	2482.138
991.46	2414.555
991.62	2293.725
991.79	2056.161
991.95	2516.954
992.12	2484.186
992.29	2342.876
992.45	2052.065
992.62	2480.090
992.78	2447.323
992.95	2256.862
993.11	2205.662
993.28	2367.452
993.44	2230.238
993.61	2144.223
993.77	2125.792
993.94	2418.651
994.10	2486.234
994.27	2502.618
994.43	2215.902
994.60	2547.673
994.76	2353.116
994.93	2328.540
995.09	2363.356
995.26	2418.651
995.42	2052.065
995.59	2322.397
995.75	2445.275
995.92	2654.168
996.08	2514.906
996.25	2097.120
996.41	2283.485
996.58	2691.031
996.74	2412.507
996.91	2394.075
997.07	2226.142
997.23	2281.437
997.40	2625.496
997.56	2344.924
997.73	2727.894
997.89	2394.075
998.06	2338.780
998.22	2277.341
998.39	2281.437
998.55	2336.732
998.72	2361.308
998.88	2383.836
999.05	2203.614
999.21	2342.876
999.37	2416.603
999.54	2514.906
999.70	2068.448
999.87	2277.341
1000.03	2412.507
1000.20	2299.869
1000.36	2578.393
1000.52	2398.171
1000.69	2936.787
1000.85	2127.840
1001.02	2611.160
1001.18	2256.862
1001.35	2512.858
1001.51	2293.725
1001.67	2588.632
1001.84	2600.920
1002.00	2211.806
1002.17	2371.548
1002.33	2338.780
1002.50	2346.972
1002.66	2461.658
1002.82	2215.902
1002.99	2248.670
1003.15	2484.186
1003.32	2340.828
1003.48	2041.825
1003.64	2363.356
1003.81	2592.728
1003.97	2592.728
1004.14	2500.570
1004.30	2060.257
1004.46	2453.467
1004.63	2441.179
1004.79	1855.460
1004.95	2408.411
1005.12	2314.205
1005.28	2772.950
1005.45	2265.053
1005.61	2125.792
1005.77	2609.112
1005.94	2488.282
1006.10	1923.043
1006.26	2367.452
1006.43	2183.135
1006.59	2265.053
1006.76	2396.123
1006.92	2342.876
1007.08	2777.046
1007.25	2215.902
1007.41	2183.135
1007.57	2043.873
1007.74	2373.596
1007.90	2572.249
1008.06	2207.710
1008.23	2148.319
1008.39	2408.411
1008.55	2361.308
1008.72	2267.101
1008.88	2211.806
1009.04	2623.448
1009.21	2500.570
1009.37	2193.375
1009.53	2215.902
1009.70	2142.175
1009.86	2265.053
1010.02	2213.854
1010.19	2090.976
1010.35	2342.876
1010.51	2318.301
1010.68	2279.389
1010.84	2183.135
1011.00	2465.754
1011.17	2195.422
1011.33	2199.518
1011.49	2402.267
1011.66	2422.747
1011.82	2473.946
1011.98	2437.083
1012.14	2027.489
1012.31	2664.407
1012.47	2242.526
1012.63	2412.507
1012.80	2447.323
1012.96	2375.644
1013.12	2422.747
1013.29	2285.533
1013.45	2492.378
1013.61	2330.588
1013.77	2484.186
1013.94	2029.537
1014.10	2039.777
1014.26	2146.271
1014.43	2512.858
1014.59	2465.754
1014.75	2217.950
1014.91	2576.345
1015.08	2527.193
1015.24	2150.367
1015.40	2424.795
1015.56	2607.064
1015.73	1939.426
1015.89	1882.083
1016.05	2187.231
1016.21	1841.124
1016.38	2480.090
1016.54	2426.843
1016.70	2172.895
1016.86	2392.028
1017.03	2359.260
1017.19	2129.888
1017.35	2285.533
1017.51	2353.116
1017.68	2185.183
1017.84	2605.016
1018.00	2119.648
1018.16	2213.854
1018.33	2181.087
1018.49	2209.758
1018.65	2414.555
1018.81	2377.692
1018.97	2504.666
1019.14	2424.795
1019.30	2584.537
1019.46	2650.072
1019.62	2138.079
1019.79	2172.895
1019.95	2222.046
1020.11	2263.005
1020.27	2082.784
1020.43	2172.895
1020.60	2109.408
1020.76	2340.828
1020.92	2385.884
1021.08	2125.792
1021.24	2254.814
1021.41	2432.987
1021.57	2590.680
1021.73	2115.552
1021.89	2234.334
1022.05	2582.489
1022.21	2244.574
1022.38	1892.323
1022.54	2166.751
1022.70	2181.087
1022.86	2027.489
1023.02	2174.943
1023.19	2238.430
1023.35	2412.507
1023.51	2121.696
1023.67	2015.201
1023.83	2244.574
1023.99	2113.504
1024.16	2097.120
1024.32	2205.662
1024.48	2318.301
1024.64	2363.356
1024.80	2394.075
1024.96	2265.053
1025.12	2301.917
1025.29	2017.249
1025.45	2160.607
1025.61	2015.201
1025.77	2154.463
1025.93	2084.832
1026.09	2273.245
1026.26	2234.334
1026.42	1986.530
1026.58	2193.375
1026.74	2027.489
1026.90	1697.766
1027.06	2105.312
1027.22	2547.673
1027.38	2222.046
1027.55	2140.127
1027.71	2211.806
1027.87	2138.079
1028.03	2105.312
1028.19	2215.902
1028.35	2269.149
1028.51	2080.736
1028.67	2013.153
1028.83	1998.818
1029.00	2211.806
1029.16	2168.799
1029.32	2240.478
1029.48	1822.692
1029.64	1964.002
1029.80	2070.496
1029.96	2377.692
1030.12	2127.840
1030.28	2035.681
1030.44	2170.847
1030.61	2414.555
1030.77	1968.098
1030.93	2109.408
1031.09	1910.755
1031.25	1978.338
1031.41	2035.681
1031.57	1802.212
1031.73	2164.703
1031.89	1976.290
1032.05	2007.009
1032.21	1863.652
1032.37	2013.153
1032.53	2170.847
1032.69	2088.928
1032.86	1857.508
1033.02	2002.913
1033.18	1974.242
1033.34	1830.884
1033.50	2222.046
1033.66	2189.279
1033.82	2228.190
1033.98	2232.286
1034.14	2131.935
1034.30	2015.201
1034.46	2160.607
1034.62	2129.888
1034.78	2142.175
1034.94	2242.526
1035.10	2230.238
1035.26	2011.105
1035.42	2037.729
1035.58	2357.212
1035.74	2070.496
1035.90	2056.161
1036.06	1910.755
1036.22	1933.282
1036.38	2359.260
1036.54	1847.268
1036.70	2015.201
1036.86	2064.352
1037.02	2113.504
1037.18	2267.101
1037.34	2148.319
1037.50	1941.474
1037.66	2109.408
1037.82	1974.242
1037.98	2236.382
1038.14	1877.987
1038.30	2076.640
1038.46	1929.187
1038.62	1898.467
1038.78	2232.286
1038.94	1908.707
1039.10	2060.257
1039.26	1873.891
1039.42	2201.566
1039.58	1867.748
1039.74	1933.282
1039.90	2115.552
1040.06	2146.271
>>>>>End Spectral Data<<<<<
