SpectraSuite Data File
++++++++++++++++++++++++++++++++++++
Date: Mon Mar 27 19:47:22 EEST 2017
User: TheoProf
Spectrometer Serial Number: USB4C02475
Spectrometer Channel: 0
Integration Time (usec): 426341
Spectra Averaged: 1
Boxcar Smoothing: 0
Correct for Electrical Dark: No
Strobe/Lamp Enabled: No
Correct for Detector Non-linearity: No
Correct for Stray Light: No
Number of Pixels in Spectrum: 3648
>>>>>Begin Spectral Data<<<<<
344.91	1243.117
345.13	1243.117
345.35	1243.117
345.57	1167.342
345.79	1150.958
346.00	3239.887
346.22	2545.625
346.44	2404.315
346.66	2803.669
346.87	2260.958
347.09	2306.013
347.31	2342.876
347.53	2576.345
347.74	2533.337
347.96	2502.618
348.18	2494.426
348.40	2127.840
348.61	2650.072
348.83	2760.662
349.05	2639.832
349.27	2435.035
349.48	2478.042
349.70	2570.201
349.92	2463.706
350.14	2430.939
350.35	2691.031
350.57	2713.559
350.79	2672.599
351.01	3182.543
351.22	2412.507
351.44	2512.858
351.66	2217.950
351.87	3028.946
352.09	2828.245
352.31	2914.260
352.53	2768.854
352.74	2916.308
352.96	2797.525
353.18	2508.762
353.40	2529.241
353.61	2496.474
353.83	2686.935
354.05	2625.496
354.26	2465.754
354.48	2572.249
354.70	2273.245
354.92	2717.655
355.13	2705.367
355.35	2764.758
355.57	2631.640
355.78	2570.201
356.00	2889.684
356.22	2314.205
356.44	2815.957
356.65	2711.511
356.87	2625.496
357.09	2820.053
357.30	2281.437
357.52	2879.444
357.74	2785.238
357.95	2396.123
358.17	2494.426
358.39	2508.762
358.60	2435.035
358.82	2392.028
359.04	2662.359
359.26	2369.500
359.47	2355.164
359.69	2852.820
359.91	2543.577
360.12	2641.880
360.34	2656.215
360.56	2289.629
360.77	2451.419
360.99	2713.559
361.21	2398.171
361.42	2435.035
361.64	2736.086
361.86	2781.142
362.07	3096.529
362.29	2463.706
362.51	2496.474
362.72	2451.419
362.94	2643.928
363.16	2531.289
363.37	2727.894
363.59	2498.522
363.81	2453.467
364.02	3037.138
364.24	2344.924
364.46	2568.153
364.67	2537.433
364.89	2717.655
365.11	2338.780
365.32	2795.477
365.54	2584.537
365.76	2572.249
365.97	2652.120
366.19	2572.249
366.41	2570.201
366.62	2838.485
366.84	2297.821
367.05	2527.193
367.27	2383.836
367.49	2250.718
367.70	2521.050
367.92	2494.426
368.14	2686.935
368.35	2625.496
368.57	2281.437
368.79	2523.098
369.00	2590.680
369.22	2584.537
369.43	2772.950
369.65	2629.592
369.87	2590.680
370.08	2676.695
370.30	2480.090
370.51	2193.375
370.73	2303.965
370.95	2607.064
371.16	2170.847
371.38	2641.880
371.60	2451.419
371.81	2654.168
372.03	2785.238
372.24	2617.304
372.46	2635.736
372.68	2217.950
372.89	2361.308
373.11	2551.769
373.32	2633.688
373.54	2746.326
373.76	2539.481
373.97	2291.677
374.19	2881.492
374.40	2803.669
374.62	2478.042
374.84	2725.846
375.05	2285.533
375.27	2924.499
375.48	2232.286
375.70	2162.655
375.92	2535.385
376.13	2521.050
376.35	2459.610
376.56	2490.330
376.78	2746.326
376.99	2230.238
377.21	2473.946
377.43	2394.075
377.64	2574.297
377.86	2691.031
378.07	2351.068
378.29	2572.249
378.51	2650.072
378.72	2529.241
378.94	2396.123
379.15	2306.013
379.37	2543.577
379.58	2764.758
379.80	2338.780
380.01	2551.769
380.23	2410.459
380.45	2486.234
380.66	2729.942
380.88	2457.562
381.09	2762.710
381.31	2772.950
381.52	2578.393
381.74	2592.728
381.95	2740.182
382.17	2637.784
382.39	2580.441
382.60	2559.961
382.82	2482.138
383.03	2500.570
383.25	2142.175
383.46	2621.400
383.68	2471.898
383.89	2967.507
384.11	2375.644
384.32	2252.766
384.54	2420.699
384.76	2588.632
384.97	2293.725
385.19	2099.168
385.40	2627.544
385.62	2549.721
385.83	2693.079
386.05	2197.470
386.26	2607.064
386.48	2508.762
386.69	2398.171
386.91	2504.666
387.12	2533.337
387.34	2428.891
387.55	2056.161
387.77	2351.068
387.98	2469.850
388.20	2676.695
388.41	2512.858
388.63	2742.230
388.84	2590.680
389.06	2795.477
389.27	2703.319
389.49	2394.075
389.70	2787.285
389.92	2471.898
390.13	2420.699
390.35	2310.109
390.56	2834.389
390.78	2535.385
390.99	2392.028
391.21	2609.112
391.42	2703.319
391.64	2428.891
391.85	2330.588
392.07	2267.101
392.28	2351.068
392.50	2736.086
392.71	2189.279
392.93	2240.478
393.14	2779.094
393.36	2777.046
393.57	2549.721
393.79	2553.817
394.00	2514.906
394.22	2127.840
394.43	2465.754
394.65	2631.640
394.86	2637.784
395.08	2437.083
395.29	2207.710
395.50	2676.695
395.72	2516.954
395.93	2990.034
396.15	2811.861
396.36	2389.980
396.58	2873.300
396.79	2615.256
397.01	2498.522
397.22	2484.186
397.44	2672.599
397.65	2367.452
397.87	2156.511
398.08	2531.289
398.29	2705.367
398.51	3151.824
398.72	2377.692
398.94	2723.798
399.15	2574.297
399.37	2674.647
399.58	2414.555
399.80	2260.958
400.01	2455.515
400.22	2666.455
400.44	2856.916
400.65	2695.127
400.87	2658.263
401.08	2736.086
401.30	2369.500
401.51	2725.846
401.72	2797.525
401.94	2363.356
402.15	2629.592
402.37	2414.555
402.58	2648.024
402.80	2664.407
403.01	2478.042
403.22	2811.861
403.44	2834.389
403.65	2701.271
403.87	2467.802
404.08	2879.444
404.30	2533.337
404.51	2725.846
404.72	2861.012
404.94	2842.581
405.15	2861.012
405.37	2797.525
405.58	2617.304
405.79	2658.263
406.01	2955.219
406.22	2613.208
406.44	2547.673
406.65	2914.260
406.86	2709.463
407.08	2543.577
407.29	2770.902
407.51	2736.086
407.72	3387.340
407.93	2985.938
408.15	2828.245
408.36	2983.890
408.58	2994.130
408.79	2813.909
409.00	3008.466
409.22	2983.890
409.43	2875.348
409.64	3180.495
409.86	2932.691
410.07	2881.492
410.29	2766.806
410.50	3057.617
410.71	3082.193
410.93	3114.960
411.14	3125.200
411.35	3340.237
411.57	2987.986
411.78	3065.809
412.00	3258.318
412.21	3555.274
412.42	3215.311
412.64	3264.462
412.85	3022.802
413.06	3352.525
413.28	3205.071
413.49	3131.344
413.70	3512.266
413.92	3497.931
414.13	2885.588
414.34	3119.056
414.56	3559.370
414.77	3649.480
414.98	3262.414
415.20	3393.484
415.41	3399.628
415.63	3342.285
415.84	3469.259
416.05	3467.211
416.27	3360.717
416.48	3387.340
416.69	3366.861
416.91	3651.528
417.12	3227.599
417.33	3731.399
417.55	3629.001
417.76	3768.262
417.97	3452.875
418.19	3536.842
418.40	3608.521
418.61	3596.233
418.83	3743.687
419.04	3706.823
419.25	3674.056
419.46	3659.720
419.68	3708.871
419.89	4036.546
420.10	3645.384
420.32	3784.646
420.53	3715.015
420.74	3934.148
420.96	3651.528
421.17	3637.192
421.38	3862.469
421.60	3796.934
421.81	3784.646
422.02	3895.237
422.23	4147.137
422.45	3876.805
422.66	3782.598
422.87	4001.731
423.09	4190.144
423.30	4093.890
423.51	4186.048
423.73	3968.963
423.94	4218.816
424.15	3770.310
424.36	4212.672
424.58	4231.103
424.79	4255.679
425.00	4083.650
425.22	4110.273
425.43	4161.472
425.64	3897.285
425.85	4188.096
426.07	4345.790
426.28	4270.015
426.49	4157.377
426.71	4313.022
426.92	4296.638
427.13	4161.472
427.34	4556.730
427.56	4857.782
427.77	4339.646
427.98	4206.528
428.19	4333.502
428.41	4218.816
428.62	4216.768
428.83	4681.657
429.04	4546.491
429.26	4724.664
429.47	4718.520
429.68	4474.812
429.89	4368.317
430.11	4714.424
430.32	4380.605
430.53	4423.612
430.74	4435.900
430.96	4808.631
431.17	4573.114
431.38	4747.192
431.59	4712.376
431.81	4777.911
432.02	4712.376
432.23	4937.653
432.44	4693.944
432.66	5304.239
432.87	4825.014
433.08	4906.933
433.29	5001.140
433.51	4865.974
433.72	5121.970
433.93	4777.911
434.14	5078.962
434.35	5402.542
434.57	5148.593
434.78	5197.745
434.99	5271.472
435.20	5230.512
435.42	5171.121
435.63	5175.217
435.84	5326.767
436.05	5156.785
436.26	5201.841
436.48	5320.623
436.69	5275.568
436.90	5279.663
437.11	5357.486
437.32	5246.896
437.54	5590.955
437.75	5689.257
437.96	5627.818
438.17	5672.873
438.38	5496.748
438.60	5752.744
438.81	5414.829
439.02	5517.228
439.23	5513.132
439.44	5425.069
439.66	5531.564
439.87	5353.390
440.08	5767.080
440.29	5742.504
440.50	5541.803
440.72	5705.641
440.93	5517.228
441.14	5719.977
441.35	5734.312
441.56	5672.873
441.77	5910.438
441.99	5980.069
442.20	5842.855
442.41	5609.386
442.62	6002.596
442.83	5848.999
443.04	5873.574
443.26	5818.279
443.47	6324.128
443.68	5791.656
443.89	5971.877
444.10	5982.117
444.31	6178.722
444.53	6295.456
444.74	6010.788
444.95	5797.800
445.16	6049.700
445.37	5920.678
445.58	6066.083
445.80	6072.227
446.01	6156.194
446.22	6418.334
446.43	5844.903
446.64	6025.124
446.85	6197.153
447.06	6176.674
447.28	6401.950
447.49	6008.740
447.70	6080.419
447.91	6182.818
448.12	5799.848
448.33	6283.168
448.54	6168.482
448.76	6256.545
448.97	6504.349
449.18	6258.592
449.39	6197.153
449.60	6264.736
449.81	6375.327
450.02	6346.655
450.23	6424.478
450.45	6893.463
450.66	6635.419
450.87	6459.293
451.08	6461.341
451.29	6682.522
451.50	6180.770
451.71	6422.430
451.92	6948.758
452.13	6475.677
452.35	6604.699
452.56	6416.286
452.77	6733.721
452.98	6627.227
453.19	6588.315
453.40	6930.326
453.61	6895.511
453.82	6778.777
454.03	6741.913
454.25	6713.242
454.46	6635.419
454.67	6932.374
454.88	7065.492
455.09	7022.485
455.30	6897.559
455.51	6969.238
455.72	6676.378
455.93	7249.809
456.14	7094.164
456.35	7038.869
456.56	7006.101
456.78	7276.433
456.99	7155.603
457.20	7245.713
457.41	7513.997
457.62	7094.164
457.83	6983.573
458.04	7214.994
458.25	7649.163
458.46	7526.285
458.67	7649.163
458.88	7616.396
459.09	7393.167
459.30	7690.123
459.51	7411.599
459.73	7540.621
459.94	7948.167
460.15	7808.905
460.36	7950.215
460.57	8200.067
460.78	8052.613
460.99	8089.477
461.20	7939.975
461.41	7976.838
461.62	8071.045
461.83	8550.270
462.04	8458.111
462.25	8216.451
462.46	8238.978
462.67	8388.480
462.88	8597.373
463.09	8873.849
463.30	8337.281
463.51	8607.613
463.72	8804.218
463.93	8783.738
464.15	8529.790
464.36	9084.789
464.57	8673.148
464.78	8847.225
464.99	9043.830
465.20	8667.004
465.41	8859.513
465.62	8933.240
465.83	9164.660
466.04	8949.623
466.25	9115.509
466.46	9430.896
466.67	9121.653
466.88	9295.730
467.09	9265.011
467.30	9656.173
467.51	9365.361
467.72	9885.545
467.93	9035.638
468.14	9578.350
468.35	9860.970
468.56	9848.682
468.77	10065.766
468.98	10407.777
469.19	10129.253
469.40	10166.117
469.61	10102.630
469.82	10229.604
470.03	10405.729
470.24	10116.966
470.45	10985.304
470.66	10381.154
470.87	10837.851
471.08	10866.522
471.29	10913.625
471.50	11091.799
471.71	10950.489
471.92	11046.743
472.13	11456.337
472.34	11099.991
472.55	11237.205
472.76	11362.131
472.97	11325.267
473.18	11808.588
473.39	11675.470
473.60	11949.898
473.81	11880.267
474.01	11755.341
474.22	11984.713
474.43	12226.373
474.64	12322.628
474.85	11941.706
475.06	12382.019
475.27	12375.875
475.48	12654.399
475.69	12664.639
475.90	12844.860
476.11	12707.646
476.32	12756.797
476.53	13160.247
476.74	13039.417
476.95	13035.321
477.16	13436.723
477.37	13625.136
477.58	13645.616
477.79	13467.442
478.00	13786.926
478.21	13864.748
478.41	13764.398
478.62	13776.686
478.83	14247.719
479.04	14280.486
479.25	14133.032
479.46	14057.258
479.67	14300.966
479.88	14352.165
480.09	14929.692
480.30	14815.006
480.51	15105.818
480.72	14987.035
480.93	14941.980
481.14	15071.002
481.34	15361.814
481.55	14984.987
481.76	15439.636
481.97	15562.515
482.18	15777.551
482.39	15832.846
482.60	15658.769
482.81	15933.197
483.02	15996.684
483.23	16258.824
483.44	16404.230
483.65	16336.647
483.85	16152.330
484.06	16559.875
484.27	16461.573
484.48	16533.252
484.69	16758.528
484.90	17057.532
485.11	16760.576
485.32	16809.728
485.53	17151.738
485.73	17868.527
485.94	17329.912
486.15	17393.399
486.36	17374.967
486.57	17735.409
486.78	17884.911
486.99	17929.966
487.20	18169.579
487.41	18153.195
487.61	17784.561
487.82	17905.391
488.03	18200.298
488.24	17854.192
488.45	18247.402
488.66	18407.143
488.87	18489.062
489.08	18984.670
489.28	18693.859
489.49	18865.888
489.70	18845.408
489.91	19125.980
490.12	18800.353
490.33	19046.109
490.54	19062.493
490.74	19279.578
490.95	19375.832
491.16	19670.740
491.37	19373.784
491.58	19277.530
491.79	19209.947
492.00	19255.002
492.20	19629.780
492.41	19666.644
492.62	19783.378
492.83	19861.201
493.04	20459.208
493.25	20358.857
493.45	19586.773
493.66	20358.857
493.87	20268.747
494.08	20491.975
494.29	20268.747
494.50	20510.407
494.70	20784.835
494.91	20934.337
495.12	20723.396
495.33	20854.466
495.54	21630.646
495.75	21118.654
495.95	20924.097
496.16	21044.927
496.37	21446.329
496.58	21059.263
496.79	21323.451
496.99	21003.968
497.20	21880.498
497.41	21778.100
497.62	21479.096
497.83	21728.948
498.04	21696.181
498.24	22122.158
498.45	21946.033
498.66	21941.937
498.87	22144.686
499.08	22232.749
499.28	22027.952
499.49	22261.420
499.70	22236.845
499.91	22632.103
500.12	21956.273
500.32	22572.712
500.53	22718.117
500.74	23094.944
500.95	22550.184
501.15	23078.560
501.36	22806.180
501.57	22787.748
501.78	23193.246
501.99	22650.534
502.19	23154.335
502.40	23395.995
502.61	23228.062
502.82	23533.209
503.02	23473.818
503.23	23764.629
503.44	23682.711
503.65	23725.718
503.86	23578.264
504.06	23735.958
504.27	24135.312
504.48	23983.762
504.69	24213.135
504.89	23633.559
505.10	23756.438
505.31	24221.326
505.52	24487.562
505.72	24217.230
505.93	24266.382
506.14	24413.835
506.35	24491.658
506.55	24733.319
506.76	24460.939
506.97	24288.909
507.18	25038.466
507.38	24929.924
507.59	24708.743
507.80	25263.742
508.01	25304.702
508.21	25304.702
508.42	25308.798
508.63	24987.267
508.84	25368.189
509.04	25300.606
509.25	25538.170
509.46	25732.727
509.67	25134.720
509.87	25759.351
510.08	25544.314
510.29	25771.639
510.49	25902.709
510.70	26125.937
510.91	26236.528
511.12	26379.885
511.32	25947.764
511.53	26254.959
511.74	25994.867
511.94	25882.229
512.15	26312.302
512.36	26064.498
512.57	26588.778
512.77	25699.960
512.98	26254.959
513.19	26117.745
513.39	26795.623
513.60	26543.723
513.81	27274.848
514.01	27080.291
514.22	27024.996
514.43	26975.844
514.64	26812.007
514.84	27420.254
515.05	27709.017
515.26	27137.634
515.46	27569.755
515.67	27340.383
515.88	27545.180
516.08	27493.980
516.29	27586.139
516.50	27754.072
516.70	27977.301
516.91	28214.865
517.12	27811.416
517.32	28233.297
517.53	27960.917
517.74	28102.227
517.95	28190.290
518.15	28132.947
518.36	28282.448
518.57	28192.338
518.77	28501.581
518.98	28567.116
519.19	29017.669
519.39	28548.684
519.60	28880.455
519.80	29285.953
520.01	28798.537
520.22	28501.581
520.42	29109.828
520.63	29316.673
520.84	29351.488
521.04	29169.219
521.25	29419.071
521.46	28945.990
521.66	29222.466
521.87	29292.097
522.08	29310.529
522.28	29279.809
522.49	29484.606
522.70	29699.643
522.90	29582.909
523.11	29464.126
523.31	29613.628
523.52	30160.436
523.73	29570.621
523.93	30258.738
524.14	29654.588
524.35	30416.432
524.55	30096.949
524.76	30088.757
524.97	30303.794
525.17	30717.483
525.38	30150.196
525.58	30205.491
525.79	30664.236
526.00	30524.974
526.20	30551.598
526.41	30791.210
526.61	30934.568
526.82	30545.454
527.03	30746.155
527.23	31086.118
527.44	30369.329
527.64	30961.192
527.85	30764.587
528.06	31272.483
528.26	31194.660
528.47	31069.734
528.68	31094.310
528.88	31206.948
529.09	31301.154
529.29	31262.243
529.50	31217.188
529.70	31409.697
529.91	31395.361
530.12	31473.184
530.32	32126.486
530.53	31786.523
530.73	31448.608
530.94	31405.601
531.15	31657.501
531.35	32192.021
531.56	32206.357
531.76	31811.099
531.97	32321.043
532.17	31698.460
532.38	32585.231
532.59	31866.394
532.79	32290.323
533.00	32210.452
533.20	32218.644
533.41	32134.678
533.61	32304.659
533.82	32425.489
534.03	32374.290
534.23	32759.308
534.44	32323.091
534.64	32478.736
534.85	32405.010
535.05	32519.696
535.26	32671.245
535.46	32695.821
535.67	32661.006
535.88	33011.208
536.08	33023.496
536.29	33240.581
536.49	33054.216
536.70	33541.632
536.90	33582.592
537.11	33670.654
537.31	33500.673
537.52	33467.905
537.72	33570.304
537.93	33674.750
538.13	33887.739
538.34	33496.577
538.55	33779.197
538.75	34000.377
538.96	33748.477
539.16	33957.370
539.37	34196.982
539.57	33234.437
539.78	34291.189
539.98	33588.735
540.19	34301.429
540.39	34360.820
540.60	34639.343
540.80	34233.846
541.01	34231.798
541.21	34452.978
541.42	34885.100
541.62	34514.417
541.83	34412.019
542.03	35302.885
542.24	34790.893
542.44	35220.967
542.65	35194.343
542.85	34895.340
543.06	34924.011
543.26	35306.981
543.47	35657.184
543.67	35313.125
543.88	35579.361
544.08	35552.738
544.29	35519.970
544.49	35728.863
544.70	35171.815
544.90	35577.313
545.11	36005.339
545.31	35677.664
545.52	35614.177
545.72	36287.958
545.93	35771.870
546.13	36242.903
546.34	36025.818
546.54	36054.490
546.75	36337.110
546.95	36068.826
547.15	36701.648
547.36	36277.718
547.56	36838.862
547.77	36709.840
547.97	36355.541
548.18	36208.088
548.38	37156.297
548.59	37316.039
548.79	36828.622
549.00	36691.408
549.20	37025.227
549.41	37295.559
549.61	37545.411
549.81	37227.976
550.02	37510.596
550.22	37778.880
550.43	37291.463
550.63	37938.621
550.84	38024.636
551.04	37727.680
551.25	37598.658
551.45	37709.249
551.65	37404.101
551.86	38184.377
552.06	37836.223
552.27	37817.791
552.47	37764.544
552.68	38333.879
552.88	37918.141
553.08	38383.030
553.29	38604.211
553.49	38698.418
553.70	38360.503
553.90	38393.270
554.11	38327.735
554.31	38981.037
554.51	38667.698
554.72	38718.897
554.92	38632.882
555.13	38983.085
555.33	38772.144
555.53	39263.657
555.74	39128.491
555.94	39134.635
556.15	39067.052
556.35	39273.897
556.56	39439.782
556.76	39450.022
556.96	39685.538
557.17	39511.461
557.37	39620.003
557.58	39495.077
557.78	39583.140
557.98	39722.402
558.19	39241.129
558.39	39654.819
558.59	39398.823
558.80	39990.686
559.00	39640.483
559.21	39660.963
559.41	39781.793
559.61	40129.948
559.82	40035.741
560.02	40131.996
560.23	40115.612
560.43	40420.759
560.63	40203.675
560.84	40256.922
561.04	40334.745
561.24	40615.316
561.45	40861.072
561.65	40252.826
561.85	40629.652
562.06	40678.803
562.26	40418.711
562.47	40656.276
562.67	40484.246
562.87	40826.257
563.08	40715.667
563.28	40668.563
563.48	40850.833
563.69	40609.172
563.89	41129.356
564.09	40981.903
564.30	40682.899
564.50	41084.301
564.70	41264.522
564.91	41033.102
565.11	41037.198
565.31	40988.047
565.52	41049.486
565.72	41477.511
565.92	41334.153
566.13	41702.788
566.33	41682.308
566.53	41799.042
566.74	42014.079
566.94	41639.301
567.14	41844.098
567.35	41428.360
567.55	42093.950
567.75	41506.183
567.96	41627.013
568.16	41649.540
568.36	41958.784
568.57	41905.537
568.77	41631.109
568.97	42091.902
569.18	42118.525
569.38	41889.153
569.58	42179.964
569.79	42173.820
569.99	42413.433
570.19	42290.555
570.39	42691.957
570.60	42026.367
570.80	42337.658
571.00	41954.688
571.21	42005.887
571.41	41948.544
571.61	42935.665
571.82	42726.772
572.02	42421.625
572.22	42540.407
572.42	42274.171
572.63	42620.278
572.83	42134.909
573.03	42487.160
573.24	42902.897
573.44	42532.215
573.64	43158.893
573.84	42962.288
574.05	42970.480
574.25	43036.015
574.45	43263.340
574.66	42997.104
574.86	43066.735
575.06	43101.550
575.26	42337.658
575.47	43388.266
575.67	42571.126
575.87	42777.971
576.07	43326.827
576.28	42732.916
576.48	43195.757
576.68	43273.580
576.88	43435.369
577.09	43263.340
577.29	43324.779
577.49	43132.270
577.69	43175.277
577.90	43808.100
578.10	43820.387
578.30	43404.650
578.50	43275.628
578.71	43484.520
578.91	43865.443
579.11	43375.978
579.31	43711.845
579.52	43674.982
579.72	43535.720
579.92	43933.026
580.12	43660.646
580.33	43740.517
580.53	44191.070
580.73	43591.015
580.93	43988.321
581.13	44238.173
581.34	43867.491
581.54	44193.118
581.74	44342.619
581.94	43877.730
582.15	44019.040
582.35	43715.941
582.55	44250.461
582.75	44332.380
582.95	43937.122
583.16	44293.468
583.36	44209.501
583.56	43621.734
583.76	43984.225
583.96	44283.228
584.17	44060.000
584.37	44283.228
584.57	44123.487
584.77	44338.523
584.97	44424.538
585.18	44361.051
585.38	44266.845
585.58	44942.674
585.78	44430.682
585.98	44881.235
586.19	43976.033
586.39	45159.759
586.59	44649.815
586.79	44926.290
586.99	44858.708
587.20	44963.154
587.40	44414.298
587.60	44213.597
587.80	45153.615
588.00	45047.121
588.20	45038.929
588.41	45172.047
588.61	44911.955
588.81	45450.570
589.01	44676.438
589.21	45141.327
589.41	45196.622
589.62	44942.674
589.82	44647.767
590.02	45002.065
590.22	44764.501
590.42	45366.604
590.62	45204.814
590.83	44973.394
591.03	45544.777
591.23	45167.951
591.43	45237.582
591.63	45026.641
591.83	45548.873
592.03	45043.025
592.24	45161.807
592.44	45548.873
592.64	45925.699
592.84	45667.655
593.04	45151.567
593.24	45956.419
593.44	46021.954
593.65	46073.153
593.85	46191.935
594.05	46294.334
594.25	45993.282
594.45	46216.511
594.65	46255.422
594.85	46259.518
595.06	46136.640
595.26	46382.396
595.46	45911.363
595.66	46398.780
595.86	46468.411
596.06	45745.478
596.26	46527.802
596.46	46361.917
596.66	46421.308
596.87	46458.171
597.07	46642.488
597.27	46689.592
597.47	46071.105
597.67	47193.392
597.87	47220.015
598.07	46366.012
598.27	46759.222
598.47	46486.843
598.67	47131.953
598.88	47156.528
599.08	47371.565
599.28	46669.112
599.48	47551.786
599.68	47510.827
599.88	47543.595
600.08	47494.443
600.28	47322.414
600.48	47969.572
600.68	47541.547
600.88	47580.458
601.09	47908.133
601.29	47482.155
601.49	47803.687
601.69	48102.690
601.89	47969.572
602.09	47645.993
602.29	48098.594
602.49	48215.328
602.69	47801.639
602.89	47527.211
603.09	48418.077
603.29	47527.211
603.49	48497.948
603.69	48147.745
603.90	47824.166
604.10	48647.450
604.30	48164.129
604.50	48852.247
604.70	48315.679
604.90	48641.306
605.10	48762.136
605.30	48667.929
605.50	48676.121
605.70	48237.856
605.90	48688.409
606.10	48895.254
606.30	48340.254
606.50	48497.948
606.70	48631.066
606.90	48297.247
607.10	48438.557
607.30	48868.630
607.50	48581.915
607.70	49372.431
607.90	49116.435
608.10	48469.276
608.30	49263.888
608.50	49700.106
608.70	48952.597
608.90	49409.294
609.11	49462.541
609.31	48856.342
609.51	49288.464
609.71	48796.951
609.91	49296.656
610.11	50035.972
610.31	49470.733
610.51	49267.984
610.71	49493.261
610.91	49822.984
611.11	49659.146
611.31	49474.829
611.51	49833.224
611.71	49650.954
611.91	49835.272
612.11	49804.552
612.31	49890.567
612.51	50242.817
612.71	49976.581
612.91	49794.312
613.11	50267.393
613.31	50482.430
613.51	49937.670
613.71	49906.950
613.91	50439.422
614.11	49677.578
614.31	50627.835
614.50	50134.275
614.70	50920.695
614.90	50355.456
615.10	50717.946
615.30	50601.212
615.50	50654.459
615.70	50916.599
615.90	50496.765
616.10	50806.009
616.30	51361.008
616.50	51188.979
616.70	50617.596
616.90	50236.673
617.10	50873.592
617.30	50767.097
617.50	50490.622
617.70	51004.662
617.90	50838.776
618.10	50896.119
618.30	51498.222
618.50	51238.130
618.70	51285.233
618.90	50814.201
619.10	51897.576
619.30	51006.710
619.49	50830.584
619.69	51244.274
619.89	51162.355
620.09	50576.636
620.29	51262.706
620.49	51596.525
620.69	51152.115
620.89	51264.754
621.09	51690.731
621.29	51094.772
621.49	51334.385
621.69	51850.473
621.89	51707.115
622.09	51873.000
622.29	51688.683
622.48	51821.801
622.68	51539.182
622.88	51811.561
623.08	52253.923
623.28	52251.875
623.48	51633.388
623.68	51936.488
623.88	51881.192
624.08	51983.591
624.28	52165.860
624.48	52313.314
624.67	51840.233
624.87	51911.912
625.07	52020.454
625.27	51881.192
625.47	51979.495
625.67	51817.705
625.87	52364.513
626.07	52139.236
626.27	51649.772
626.47	51694.827
626.66	52311.266
626.86	52311.266
627.06	51926.248
627.26	52772.059
627.46	52751.579
627.66	52172.004
627.86	52266.210
628.06	52264.162
628.25	52391.137
628.45	52667.612
628.65	52692.188
628.85	52434.144
629.05	52178.148
629.25	52296.930
629.45	52366.561
629.65	52114.661
629.84	52518.111
630.04	52507.871
630.24	52989.143
630.44	52829.402
630.64	53109.974
630.84	53089.494
631.04	52544.734
631.23	52886.745
631.43	53576.910
631.63	52645.085
631.83	52751.579
632.03	52966.616
632.23	53212.372
632.42	53226.708
632.62	53085.398
632.82	53001.431
633.02	52833.498
633.22	52573.406
633.42	52815.066
633.62	52554.974
633.81	52847.834
634.01	52294.882
634.21	53341.394
634.41	53073.110
634.61	53521.615
634.80	52874.457
635.00	53382.353
635.20	53439.697
635.40	53333.202
635.60	53224.660
635.80	53439.697
635.99	52860.121
636.19	53470.416
636.39	53400.785
636.59	53126.357
636.79	54062.279
636.98	53071.062
637.18	53529.807
637.38	53640.398
637.58	53320.914
637.78	53826.763
637.97	53218.516
638.17	52931.800
638.37	53781.707
638.57	53531.855
638.77	53765.324
638.96	53322.962
639.16	53355.730
639.36	53681.357
639.56	53404.881
639.76	53458.128
639.95	53325.010
640.15	53163.221
640.35	53257.427
640.55	53656.781
640.75	53308.627
640.94	53447.888
641.14	53112.022
641.34	53329.106
641.54	53468.368
641.73	53750.988
641.93	53675.213
642.13	53343.442
642.33	53066.966
642.53	53155.029
642.72	53427.409
642.92	53394.641
643.12	53304.531
643.32	53773.515
643.51	53298.387
643.71	53085.398
643.91	53617.870
644.11	52970.712
644.30	53673.165
644.50	53513.423
644.70	53519.567
644.90	53693.645
645.09	53961.929
645.29	53667.021
645.49	53314.770
645.69	53685.453
645.88	53634.254
646.08	53712.076
646.28	54183.109
646.48	53406.929
646.67	53503.184
646.87	53798.091
647.07	53595.342
647.26	53558.479
647.46	53220.564
647.66	53730.508
647.86	53916.873
648.05	53873.866
648.25	54271.172
648.45	53953.737
648.65	53652.685
648.84	53959.881
649.04	53935.305
649.24	54318.275
649.43	53472.464
649.63	54187.205
649.83	54271.172
650.03	53972.168
650.22	53906.633
650.42	53611.726
650.62	53810.379
650.81	53533.903
651.01	53800.139
651.21	53900.490
651.40	53824.715
651.60	53990.600
651.80	53685.453
652.00	54256.836
652.19	54332.611
652.39	54158.534
652.59	53750.988
652.78	54269.124
652.98	53826.763
653.18	54195.397
653.37	53900.490
653.57	53990.600
653.77	54156.486
653.96	54039.751
654.16	54101.190
654.36	54482.113
654.55	54772.924
654.75	53806.283
654.95	54064.327
655.14	54056.135
655.34	53908.681
655.54	54117.574
655.73	53703.885
655.93	54852.795
656.13	53372.114
656.32	53855.434
656.52	53853.386
656.72	54068.423
656.91	54277.316
657.11	54318.275
657.31	53894.346
657.50	54766.780
657.70	54549.696
657.90	54320.323
658.09	54033.608
658.29	54062.279
658.49	53880.010
658.68	54516.928
658.88	53837.002
659.07	54207.685
659.27	54119.622
659.47	54295.748
659.66	54002.888
659.86	54328.515
660.06	54254.788
660.25	54246.596
660.45	54443.201
660.64	54758.588
660.84	54346.947
661.04	54557.888
661.23	54355.139
661.43	54353.091
661.63	54045.895
661.82	54662.334
662.02	53976.264
662.21	54123.718
662.41	54746.301
662.61	54578.367
662.80	54142.150
663.00	54308.035
663.19	53750.988
663.39	54492.352
663.59	54551.744
663.78	54138.054
663.98	54039.751
664.17	54426.818
664.37	53742.796
664.57	54422.722
664.76	54973.625
664.96	54615.231
665.15	54451.393
665.35	54176.965
665.55	54219.973
665.74	54885.562
665.94	54508.736
666.13	54809.788
666.33	54340.803
666.53	54465.729
666.72	54176.965
666.92	54281.412
667.11	53974.216
667.31	54021.320
667.50	54697.149
667.70	53929.161
667.90	54289.604
668.09	54492.352
668.29	54396.098
668.48	54396.098
668.68	54291.652
668.87	54217.925
669.07	54191.301
669.26	54609.087
669.46	54367.426
669.66	54650.046
669.85	53720.268
670.05	54068.423
670.24	53828.811
670.44	54273.220
670.63	54484.161
670.83	54742.205
671.02	54783.164
671.22	54414.530
671.42	54174.917
671.61	54152.390
671.81	54299.843
672.00	53963.977
672.20	53990.600
672.39	54674.622
672.59	54961.337
672.78	54160.582
672.98	54594.751
673.17	53963.977
673.37	53884.106
673.56	54320.323
673.76	54621.375
673.95	54185.157
674.15	53923.017
674.34	54330.563
674.54	54500.544
674.73	54713.533
674.93	54529.216
675.13	54688.958
675.32	54238.404
675.52	54865.083
675.71	54201.541
675.91	54205.637
676.10	54443.201
676.30	54387.906
676.49	54035.655
676.69	53935.305
676.88	54326.467
677.08	53900.490
677.27	53642.445
677.47	54142.150
677.66	54478.017
677.86	54865.083
678.05	53886.154
678.24	53949.641
678.44	54486.209
678.63	53947.593
678.83	54283.460
679.02	54023.368
679.22	54144.198
679.41	54957.241
679.61	53914.825
679.80	54267.076
680.00	54113.478
680.19	54772.924
680.39	54461.633
680.58	54518.976
680.78	54185.157
680.97	54615.231
681.17	53896.394
681.36	53974.216
681.56	54064.327
681.75	54119.622
681.94	54189.253
682.14	53972.168
682.33	53906.633
682.53	54574.271
682.72	53945.545
682.92	53931.209
683.11	54662.334
683.31	53658.829
683.50	54088.903
683.69	53880.010
683.89	53814.475
684.08	53955.785
684.28	54557.888
684.47	53789.899
684.67	53681.357
684.86	53480.656
685.06	53974.216
685.25	53853.386
685.44	54023.368
685.64	54045.895
685.83	53869.770
686.03	53728.460
686.22	54133.958
686.42	53478.608
686.61	54205.637
686.80	53398.737
687.00	53480.656
687.19	53933.257
687.39	53497.040
687.58	53542.095
687.77	53640.398
687.97	53456.080
688.16	53052.630
688.36	53294.291
688.55	53253.331
688.74	54090.951
688.94	53472.464
689.13	52933.848
689.33	53249.235
689.52	53390.545
689.71	52860.121
689.91	53325.010
690.10	53011.671
690.30	53441.745
690.49	53292.243
690.68	53165.269
690.88	53322.962
691.07	53630.158
691.27	53701.837
691.46	53982.408
691.65	53556.431
691.85	53830.859
692.04	53312.722
692.23	53032.151
692.43	52952.280
692.62	53298.387
692.82	53652.685
693.01	53402.833
693.20	52804.826
693.40	53433.553
693.59	53136.597
693.78	53009.623
693.98	53279.955
694.17	52976.856
694.36	53470.416
694.56	53320.914
694.75	53064.918
694.94	53576.910
695.14	52968.664
695.33	53456.080
695.53	53099.734
695.72	52888.793
695.91	53308.627
696.11	53312.722
696.30	52796.634
696.49	52813.018
696.69	52309.218
696.88	52354.273
697.07	52245.731
697.27	52833.498
697.46	52442.336
697.65	52874.457
697.85	52665.564
698.04	52899.033
698.23	52681.948
698.43	52610.269
698.62	53167.317
698.81	52722.908
699.01	52192.484
699.20	52628.701
699.39	52755.675
699.58	52184.292
699.78	52225.251
699.97	52247.779
700.16	51692.779
700.36	51897.576
700.55	52143.332
700.74	52694.236
700.94	51928.296
701.13	52440.288
701.32	52309.218
701.52	52618.461
701.71	52088.037
701.90	52010.214
702.09	52159.716
702.29	52190.436
702.48	52131.045
702.67	51881.192
702.87	52317.410
703.06	51946.727
703.25	51829.993
703.44	51893.480
703.64	51660.012
703.83	51465.455
704.02	52081.893
704.22	51954.919
704.41	51637.484
704.60	52077.797
704.79	51897.576
704.99	51434.735
705.18	51999.975
705.37	51973.351
705.56	51662.060
705.76	51649.772
705.95	51508.462
706.14	51907.816
706.33	51109.108
706.53	51160.307
706.72	52083.941
706.91	51694.827
707.11	51215.602
707.30	51174.643
707.49	51823.849
707.68	51449.071
707.88	50873.592
708.07	51156.211
708.26	51688.683
708.45	50558.205
708.64	51248.370
708.84	51361.008
709.03	51244.274
709.22	50822.392
709.41	50636.027
709.61	50355.456
709.80	50885.880
709.99	51121.396
710.18	50945.271
710.38	50443.518
710.57	51008.758
710.76	50144.515
710.95	50353.408
711.14	50951.415
711.34	50511.101
711.53	50234.625
711.72	50226.434
711.91	50308.352
712.11	50507.005
712.30	50365.695
712.49	50005.253
712.68	50750.714
712.87	50222.338
713.07	50283.777
713.26	50285.825
713.45	50396.415
713.64	50457.854
713.83	50267.393
714.03	50212.098
714.22	50242.817
714.41	50597.116
714.60	50312.448
714.79	49968.390
714.99	50271.489
715.18	50058.500
715.37	50068.740
715.56	50115.843
715.75	50138.371
715.94	49767.689
716.14	49712.393
716.33	49589.515
716.52	49515.788
716.71	50060.548
716.90	49904.902
717.10	49728.777
717.29	49405.198
717.48	49724.681
717.67	49511.692
717.86	49845.511
718.05	49454.349
718.24	49376.527
718.44	49655.050
718.63	49380.622
718.82	49632.523
719.01	49300.752
719.20	49401.102
719.39	49286.416
719.59	48768.280
719.78	49083.667
719.97	48674.073
720.16	48784.664
720.35	48805.143
720.54	49394.958
720.73	49083.667
720.93	48903.446
721.12	49392.910
721.31	49040.660
721.50	49501.453
721.69	49231.121
721.88	48559.387
722.07	49087.763
722.27	48749.848
722.46	48413.981
722.65	48344.350
722.84	48420.125
723.03	48192.801
723.22	48395.550
723.41	48149.793
723.60	49319.183
723.79	48510.236
723.99	48563.483
724.18	48678.169
724.37	48379.166
724.56	48672.025
724.75	48477.468
724.94	48026.915
725.13	48663.833
725.32	48790.808
725.51	47938.852
725.71	48219.424
725.90	48112.930
726.09	47805.735
726.28	48024.867
726.47	47555.882
726.66	48121.122
726.85	48182.561
727.04	47955.236
727.23	47934.757
727.42	47703.336
727.61	47856.934
727.81	47912.229
728.00	47807.782
728.19	47756.583
728.38	47686.952
728.57	47592.746
728.76	47916.325
728.95	47701.288
729.14	47371.565
729.33	47713.576
729.52	47512.875
729.71	47656.233
729.90	47689.000
730.09	47439.148
730.28	47527.211
730.48	47482.155
730.67	47611.178
730.86	47453.484
731.05	47545.642
731.24	46961.971
731.43	47068.466
731.62	47031.602
731.81	47058.226
732.00	47592.746
732.19	47375.661
732.38	46822.710
732.57	47314.222
732.76	46796.086
732.95	47713.576
733.14	46974.259
733.33	47306.030
733.52	46316.861
733.71	46931.252
733.90	46449.979
734.09	47097.137
734.28	46929.204
734.47	46542.138
734.66	47064.370
734.85	47013.171
735.04	46675.256
735.23	46789.942
735.42	46468.411
735.61	46859.573
735.81	47027.506
736.00	46249.278
736.19	46656.824
736.38	46648.632
736.57	46605.625
736.76	46703.927
736.95	45866.308
737.14	46712.119
737.33	46560.570
737.52	46075.201
737.71	45964.611
737.90	46611.769
738.09	46060.865
738.28	46345.533
738.47	46073.153
738.66	45997.378
738.85	46071.105
739.04	45997.378
739.22	46136.640
739.41	45937.987
739.60	45905.220
739.79	45911.363
739.98	45983.042
740.17	45657.415
740.36	45579.592
740.55	45716.806
740.74	45397.323
740.93	45694.279
741.12	45700.423
741.31	45415.755
741.50	45624.648
741.69	45501.770
741.88	44875.091
742.07	45403.467
742.26	45700.423
742.45	45141.327
742.64	45610.312
742.83	45268.301
743.02	45677.895
743.21	45557.065
743.40	45053.265
743.59	45071.696
743.78	45116.752
743.97	45274.445
744.16	44961.106
744.34	45043.025
744.53	45444.427
744.72	45053.265
744.91	44936.530
745.10	45440.331
745.29	45372.748
745.48	44969.298
745.67	45112.656
745.86	45047.121
746.05	44995.921
746.24	44426.586
746.43	44473.689
746.62	45202.766
746.81	44651.863
747.00	44840.276
747.18	44625.239
747.37	44610.903
747.56	44563.800
747.75	44391.771
747.94	44596.568
748.13	44309.852
748.32	44055.904
748.51	44193.118
748.70	44588.376
748.89	43986.273
749.08	44715.350
749.26	44397.915
749.45	44440.922
749.64	44150.110
749.83	44285.276
750.02	44299.612
750.21	44633.431
750.40	44426.586
750.59	44275.036
750.78	44483.929
750.96	43771.236
751.15	44121.439
751.34	44502.361
751.53	44512.601
751.72	44119.391
751.91	44115.295
752.10	43781.476
752.29	43865.443
752.47	43707.749
752.66	43935.074
752.85	44055.904
753.04	43648.358
753.23	43654.502
753.42	43722.085
753.61	43443.561
753.80	43957.601
753.98	43548.008
754.17	43705.701
754.36	43617.638
754.55	43580.775
754.74	44006.752
754.93	43281.772
755.12	43687.269
755.30	43638.118
755.49	43646.310
755.68	43511.144
755.87	43466.089
756.06	43656.550
756.25	43349.355
756.43	43148.654
756.62	42855.794
756.81	43146.606
757.00	43554.151
757.19	43015.536
757.38	43634.022
757.56	42894.705
757.75	43136.366
757.94	42882.418
758.13	43165.037
758.32	42444.152
758.51	43009.392
758.69	42849.650
758.88	43076.975
759.07	43517.288
759.26	42925.425
759.45	42784.115
759.63	42814.835
759.82	42546.551
760.01	42530.167
760.20	42913.137
760.39	41934.208
760.57	42433.912
760.76	42638.709
760.95	42188.156
761.14	42079.614
761.33	42734.964
761.51	42311.034
761.70	42218.876
761.89	42366.330
762.08	42347.898
762.27	42704.244
762.45	42059.134
762.64	42372.473
762.83	42583.414
763.02	42063.230
763.21	41956.736
763.39	41661.828
763.58	42259.835
763.77	42333.562
763.96	41500.039
764.14	42233.212
764.33	41733.507
764.52	41758.083
764.71	41770.371
764.89	41960.832
765.08	42046.846
765.27	41803.138
765.46	41790.850
765.65	41760.131
765.83	41256.330
766.02	41045.390
766.21	41655.684
766.40	41504.135
766.58	41256.330
766.77	40955.279
766.96	41872.769
767.15	41295.242
767.33	41268.618
767.52	41069.965
767.71	40969.615
767.90	41033.102
768.08	41368.969
768.27	41305.482
768.46	41172.364
768.64	40754.578
768.83	40838.545
769.02	40977.807
769.21	41000.334
769.39	40734.098
769.58	40828.305
769.77	41549.190
769.96	40820.113
770.14	40811.921
770.33	40754.578
770.52	40682.899
770.70	40762.770
770.89	40789.394
771.08	40152.475
771.27	40359.320
771.45	40342.936
771.64	40426.903
771.83	41145.740
772.01	40084.892
772.20	40117.660
772.39	40856.977
772.57	40201.627
772.76	40615.316
772.95	39832.992
773.14	40451.479
773.32	39898.527
773.51	40031.645
773.70	40138.140
773.88	39978.398
774.07	39552.420
774.26	39808.417
774.44	39581.092
774.63	39376.295
774.82	39148.971
775.00	39728.546
775.19	39378.343
775.38	39351.720
775.56	39515.557
775.75	39892.383
775.94	39341.480
776.12	39015.853
776.31	39490.981
776.50	39019.949
776.68	38823.344
776.87	39040.428
777.06	39345.576
777.24	38729.137
777.43	38741.425
777.62	39280.041
777.80	39218.602
777.99	38997.421
778.18	38753.713
778.36	38581.683
778.55	38923.694
778.74	39116.203
778.92	38456.757
779.11	38784.432
779.29	38243.768
779.48	38471.093
779.67	38495.669
779.85	38225.337
780.04	38774.192
780.23	37840.319
780.41	38155.706
780.60	38108.602
780.79	38323.639
780.97	37873.086
781.16	38075.835
781.34	38391.222
781.53	38417.846
781.72	38415.798
781.90	37780.928
782.09	37615.042
782.28	37850.558
782.46	37553.603
782.65	37725.632
782.83	37410.245
783.02	37031.371
783.21	37731.776
783.39	37107.146
783.58	37498.308
783.76	37060.042
783.95	36793.807
784.14	37133.769
784.32	36871.629
784.51	37354.950
784.69	36806.094
784.88	36945.356
785.06	36861.390
785.25	36953.548
785.44	37045.707
785.62	36826.574
785.81	36988.364
785.99	36961.740
786.18	36574.674
786.37	36777.423
786.55	36224.471
786.74	36867.533
786.92	36849.102
787.11	36228.567
787.29	36552.146
787.48	36402.645
787.67	36562.386
787.85	36320.726
788.04	35880.412
788.22	36406.740
788.41	36707.792
788.59	36529.619
788.78	36324.822
788.96	36046.298
789.15	36541.906
789.34	35810.782
789.52	35941.852
789.71	35587.553
789.89	35665.376
790.08	35982.811
790.26	35458.531
790.45	36154.840
790.63	35327.461
790.82	35841.501
791.00	35255.782
791.19	35257.830
791.38	36062.682
791.56	35548.642
791.75	35390.948
791.93	35096.040
792.12	35333.605
792.30	34983.402
792.49	35266.022
792.67	35116.520
792.86	35374.564
793.04	35300.837
793.23	35210.727
793.41	34936.299
793.60	35147.240
793.78	35440.099
793.97	35083.753
794.15	35247.590
794.34	34850.284
794.52	34942.443
794.71	35294.693
794.89	34950.635
795.08	35450.339
795.26	34579.952
795.45	34995.690
795.63	35472.867
795.82	34735.598
796.00	34711.022
796.19	34842.092
796.37	35110.376
796.56	34702.830
796.74	35016.170
796.93	34694.639
797.11	35096.040
797.30	35016.170
797.48	35073.513
797.67	35153.384
797.85	34799.085
798.04	34846.188
798.22	35104.232
798.41	34950.635
798.59	34614.768
798.77	34971.114
798.96	34620.912
799.14	35016.170
799.33	34743.790
799.51	35352.037
799.70	35153.384
799.88	34932.203
800.07	34969.066
800.25	34809.325
800.44	34958.827
800.62	34686.447
800.80	34610.672
800.99	34813.421
801.17	35116.520
801.36	34229.750
801.54	35022.314
801.73	34457.074
801.91	34477.554
802.10	34485.746
802.28	34239.990
802.46	34590.192
802.65	34850.284
802.83	34541.041
803.02	34559.473
803.20	34440.690
803.39	33805.820
803.57	34000.377
803.75	34489.842
803.94	34248.181
804.12	34106.872
804.31	33859.067
804.49	34049.528
804.67	33539.584
804.86	33701.374
805.04	33836.540
805.23	34063.864
805.41	33893.883
805.59	33613.311
805.78	33703.422
805.96	34084.344
806.15	34067.960
806.33	33719.805
806.51	33621.503
806.70	33820.156
806.88	33889.787
807.07	33762.813
807.25	33545.728
807.43	33132.038
807.62	33160.710
807.80	32720.397
807.99	33310.212
808.17	33019.400
808.35	33555.968
808.54	33363.459
808.72	33093.127
808.90	33576.448
809.09	33412.610
809.27	33320.452
809.46	32978.441
809.64	32826.891
809.82	33205.765
810.01	32650.766
810.19	32720.397
810.37	32417.297
810.56	32820.747
810.74	32771.596
810.92	32556.559
811.11	32749.068
811.29	32876.042
811.48	31753.755
811.66	32271.892
811.84	32556.559
812.03	32339.475
812.21	32126.486
812.39	32097.814
812.58	31532.575
812.76	32171.541
812.94	31802.907
813.13	32071.191
813.31	31921.689
813.49	32132.630
813.68	31989.272
813.86	31708.700
814.04	31720.988
814.23	31614.494
814.41	31331.874
814.59	31172.132
814.78	31331.874
814.96	31340.066
815.14	31450.656
815.33	31438.368
815.51	31252.003
815.69	31047.206
815.87	30901.800
816.06	31366.689
816.24	31313.442
816.42	30524.974
816.61	30334.513
816.79	31032.870
816.97	30809.642
817.16	30699.052
817.34	30764.587
817.52	30268.978
817.70	31026.727
817.89	30535.214
818.07	30361.137
818.25	29965.879
818.44	30582.317
818.62	30152.244
818.80	30142.004
818.98	29840.953
819.17	29994.550
819.35	29802.041
819.53	29941.303
819.72	29879.864
819.90	30277.170
820.08	29564.477
820.26	29589.052
820.45	29421.119
820.63	29974.071
820.81	29271.617
820.99	29670.971
821.18	29716.027
821.36	29652.540
821.54	29853.240
821.73	29611.580
821.91	29265.473
822.09	29359.680
822.27	29369.920
822.46	29197.890
822.64	29056.581
822.82	29212.226
823.00	28896.839
823.19	28845.640
823.37	29212.226
823.55	28646.987
823.73	28827.208
823.91	28374.607
824.10	28857.928
824.28	28743.241
824.46	28704.330
824.64	28534.349
824.83	28851.784
825.01	28493.389
825.19	28423.758
825.37	28212.818
825.56	28368.463
825.74	28116.563
825.92	27954.773
826.10	28223.057
826.28	28397.135
826.47	27803.224
826.65	28053.076
826.83	27692.633
827.01	27813.464
827.19	28290.640
827.38	28323.408
827.56	27962.965
827.74	27940.438
827.92	27805.272
828.10	27512.412
828.29	27715.161
828.47	27405.918
828.65	27364.958
828.83	27600.475
829.01	27414.110
829.20	27526.748
829.38	26883.686
829.56	27416.158
829.74	27031.140
829.92	27088.483
830.10	27082.339
830.29	26984.036
830.47	27119.202
830.65	26545.771
830.83	27369.054
831.01	27039.331
831.20	26908.261
831.38	26887.782
831.56	27000.420
831.74	26914.405
831.92	26848.870
832.10	26656.361
832.29	26859.110
832.47	26586.730
832.65	26517.099
832.83	26429.037
833.01	26386.029
833.19	25988.723
833.37	26451.564
833.56	26244.720
833.74	26424.941
833.92	26304.111
834.10	26134.129
834.28	26334.830
834.46	26465.900
834.64	26232.432
834.83	25779.831
835.01	26418.797
835.19	25894.517
835.37	25933.428
835.55	25726.583
835.73	26289.775
835.91	25810.550
836.09	26322.542
836.28	25970.292
836.46	25781.879
836.64	26060.402
836.82	25325.182
837.00	25841.270
837.18	25607.801
837.36	25914.997
837.54	25677.432
837.72	25763.447
837.91	25536.122
838.09	26084.978
838.27	25611.897
838.45	25304.702
838.63	25613.945
838.81	25970.292
838.99	25785.975
839.17	25443.964
839.35	25978.484
839.53	25486.971
839.72	25386.621
839.90	25306.750
840.08	25255.551
840.26	24864.389
840.44	24927.876
840.62	24624.776
840.80	25439.868
840.98	25681.528
841.16	25036.418
841.34	24950.403
841.52	24620.680
841.70	24921.732
841.89	24669.832
842.07	25192.064
842.25	24919.684
842.43	24807.045
842.61	24942.211
842.79	24598.153
842.97	24194.703
843.15	24696.455
843.33	24501.898
843.51	24690.311
843.69	24567.433
843.87	24569.481
844.05	24790.662
844.23	24379.020
844.41	24034.961
844.59	24370.828
844.77	24405.644
844.95	23840.404
845.13	24286.861
845.31	23608.984
845.50	24626.824
845.68	24043.153
845.86	23879.316
846.04	24440.459
846.22	24374.924
846.40	23494.298
846.58	23498.393
846.76	23879.316
846.94	24161.935
847.12	23105.183
847.30	23912.083
847.48	24000.146
847.66	24026.769
847.84	23864.980
848.02	23940.755
848.20	23981.714
848.38	23883.412
848.56	23891.603
848.74	23662.231
848.92	23369.371
849.10	24006.290
849.28	23414.427
849.46	23735.958
849.64	23623.320
849.82	23580.312
850.00	23738.006
850.18	23170.718
850.36	23516.825
850.54	23826.068
850.72	23506.585
850.90	23469.722
851.08	22873.763
851.26	23658.135
851.44	23232.158
851.62	23013.025
851.80	23461.530
851.98	23451.290
852.16	23518.873
852.34	23029.409
852.52	23086.752
852.70	23451.290
852.87	22970.018
853.05	22830.756
853.23	22529.704
853.41	23602.840
853.59	23412.379
853.77	23176.862
853.95	23096.992
854.13	22576.808
854.31	22752.933
854.49	22668.966
854.67	22722.213
854.85	22855.331
855.03	22623.911
855.21	22673.062
855.39	22527.656
855.57	22288.044
855.75	22458.025
855.93	22283.948
856.11	22572.712
856.28	22189.741
856.46	22021.808
856.64	22646.438
856.82	22228.653
857.00	22109.871
857.18	22339.243
857.36	22390.442
857.54	21929.649
857.72	22070.959
857.90	21835.443
858.08	22083.247
858.26	22355.627
858.44	21960.369
858.61	21966.513
858.79	21712.565
858.97	21978.801
859.15	22040.240
859.33	21620.406
859.51	21956.273
859.69	21487.288
859.87	21833.395
860.05	21921.458
860.23	21524.152
860.40	21841.587
860.58	22013.616
860.76	21702.325
860.94	21399.225
861.12	22019.760
861.30	21649.078
861.48	21671.605
861.66	21497.528
861.84	21415.609
862.01	21923.505
862.19	21575.351
862.37	21567.159
862.55	21298.875
862.73	21423.801
862.91	21251.772
863.09	21341.882
863.27	21298.875
863.44	20995.776
863.62	21055.167
863.80	21436.089
863.98	20758.211
864.16	21597.878
864.34	21055.167
864.52	21399.225
864.69	21528.248
864.87	21057.215
865.05	21120.702
865.23	20981.440
865.41	21182.141
865.59	21069.502
865.76	21161.661
865.94	21040.831
866.12	20799.171
866.30	21153.469
866.48	21069.502
866.66	20797.123
866.83	20598.470
867.01	20696.772
867.19	20680.388
867.37	20700.868
867.55	20567.750
867.73	20307.658
867.90	20139.725
868.08	21145.277
868.26	19951.312
868.44	20084.430
868.62	20246.219
868.79	20577.990
868.97	20301.514
869.15	20162.252
869.33	20020.942
869.51	20174.540
869.69	19932.880
869.86	19711.699
870.04	20295.370
870.22	20004.559
870.40	20035.278
870.57	19697.363
870.75	19756.755
870.93	19603.157
871.11	19814.098
871.29	19320.537
871.46	19527.382
871.64	19488.471
871.82	19879.633
872.00	20291.274
872.18	19515.094
872.35	19795.666
872.53	19537.622
872.71	19312.345
872.89	19764.946
873.06	19414.744
873.24	19312.345
873.42	19449.559
873.60	19554.006
873.77	19644.116
873.95	19394.264
874.13	19533.526
874.31	19304.153
874.49	19367.640
874.66	19207.899
874.84	19338.969
875.02	19556.054
875.20	19384.024
875.37	19291.866
875.55	19101.405
875.73	18927.327
875.91	19031.774
876.08	19039.965
876.26	19095.261
876.44	18992.862
876.61	19392.216
876.79	19668.692
876.97	19420.888
877.15	19242.714
877.32	18837.217
877.50	19228.379
877.68	18978.526
877.86	18673.379
878.03	19543.766
878.21	18968.287
878.39	18714.338
878.56	18869.984
878.74	19130.076
878.92	18818.785
879.10	19035.870
879.27	18999.006
879.45	19302.105
879.63	19103.452
879.80	18915.039
879.98	18818.785
880.16	19211.995
880.34	18958.047
880.51	19283.674
880.69	18976.478
880.87	19197.659
881.04	19146.460
881.22	19412.696
881.40	19039.965
881.57	18849.504
881.75	19148.508
881.93	19390.168
882.10	19171.035
882.28	19381.976
882.46	19097.309
882.63	19513.046
882.81	18646.755
882.99	18829.025
883.16	18837.217
883.34	19125.980
883.52	18773.730
883.69	19117.788
883.87	18999.006
884.05	19168.988
884.22	19336.921
884.40	18796.257
884.58	18597.604
884.75	19175.131
884.93	18996.958
885.11	19250.906
885.28	19001.054
885.46	19007.198
885.64	18972.382
885.81	19189.467
885.99	19132.124
886.17	18958.047
886.34	19011.294
886.52	19222.235
886.70	19037.918
886.87	18976.478
887.05	18925.279
887.22	19115.740
887.40	19267.290
887.58	18544.357
887.75	18388.711
887.93	18857.696
888.11	18697.955
888.28	18652.899
888.46	18548.453
888.63	18585.316
888.81	18448.102
888.99	18941.663
889.16	18654.947
889.34	18538.213
889.51	18749.154
889.69	18781.921
889.87	18550.501
890.04	18632.420
890.22	18280.169
890.39	18454.246
890.57	19011.294
890.75	18687.715
890.92	18910.943
891.10	18966.239
891.27	18564.837
891.45	18740.962
891.63	18464.486
891.80	18767.586
891.98	18745.058
892.15	18204.394
892.33	18757.346
892.51	18349.800
892.68	18675.427
892.86	18538.213
893.03	18896.608
893.21	18581.220
893.38	18853.600
893.56	18579.172
893.74	18538.213
893.91	18079.468
894.09	18415.335
894.26	18446.055
894.44	18407.143
894.61	18519.781
894.79	18333.416
894.96	18470.630
895.14	18321.128
895.32	18353.896
895.49	18181.867
895.67	18099.948
895.84	17946.350
896.02	18251.498
896.19	18224.874
896.37	18181.867
896.54	18431.719
896.72	18163.435
896.89	18167.531
897.07	18544.357
897.25	18638.564
897.42	18149.099
897.60	18400.999
897.77	18157.291
897.95	17993.453
898.12	18427.623
898.30	18208.490
898.47	17889.007
898.65	17647.347
898.82	17600.243
899.00	17846.000
899.17	18011.885
899.35	17850.096
899.52	17792.752
899.70	17819.376
899.87	17897.199
900.05	17669.874
900.22	17694.450
900.40	17544.948
900.57	17825.520
900.75	17747.697
900.92	17733.361
901.10	17235.705
901.27	17442.550
901.45	17684.210
901.62	17516.277
901.80	16854.783
901.97	16963.325
902.15	17305.336
902.32	17352.439
902.50	17280.760
902.67	17125.115
902.85	17258.233
903.02	17354.487
903.20	16877.310
903.37	17071.868
903.54	17268.472
903.72	17157.882
903.89	16742.145
904.07	16666.370
904.24	16834.303
904.42	16684.801
904.59	16633.602
904.77	16758.528
904.94	16606.979
905.12	16596.739
905.29	16897.790
905.47	16703.233
905.64	16598.787
905.81	16402.182
905.99	16039.691
906.16	16742.145
906.34	16453.381
906.51	16236.296
906.69	16322.311
906.86	16273.160
907.03	16772.864
907.21	16195.337
907.38	16381.702
907.56	16336.647
907.73	16242.440
907.91	16551.683
908.08	16330.503
908.25	16299.783
908.43	16754.432
908.60	16269.064
908.78	15990.540
908.95	16340.743
909.13	15990.540
909.30	16027.403
909.47	15804.175
909.65	16076.555
909.82	15925.005
910.00	15922.957
910.17	15744.784
910.34	15808.271
910.52	15767.311
910.69	15920.909
910.87	15548.179
911.04	15529.747
911.21	15789.839
911.39	15562.515
911.56	15699.728
911.73	15572.754
911.91	15623.954
912.08	15697.680
912.26	15433.492
912.43	15832.846
912.60	15230.744
912.78	14952.220
912.95	15337.238
913.13	15263.511
913.30	15404.821
913.47	15646.481
913.65	15322.902
913.82	15224.600
913.99	15050.522
914.17	15240.983
914.34	15109.913
914.51	15152.921
914.69	15116.057
914.86	15326.998
915.03	15286.039
915.21	14696.224
915.38	14868.253
915.56	15267.607
915.73	14464.803
915.90	14536.482
916.08	14726.943
916.25	15046.426
916.42	14376.741
916.60	14747.423
916.77	14634.785
916.94	14874.397
917.12	14434.084
917.29	14583.585
917.46	14341.925
917.64	14595.873
917.81	14595.873
917.98	14292.774
918.16	14503.715
918.33	14563.106
918.50	14499.619
918.67	14130.984
918.85	14368.549
919.02	14399.268
919.19	14343.973
919.37	14264.102
919.54	13678.383
919.71	14200.615
919.89	14040.874
920.06	14145.320
920.23	14071.593
920.41	14202.663
920.58	13461.299
920.75	13893.420
920.92	13602.608
921.10	13647.664
921.27	13479.730
921.44	13885.228
921.62	13610.800
921.79	13940.523
921.96	13649.712
922.13	13899.564
922.31	13754.158
922.48	13340.468
922.65	13600.560
922.82	13313.845
923.00	13782.830
923.17	13850.413
923.34	13504.306
923.52	13248.310
923.69	13547.313
923.86	13377.332
924.03	13176.631
924.21	12824.380
924.38	13422.387
924.55	13246.262
924.72	13147.959
924.90	12998.458
925.07	13635.376
925.24	13162.295
925.41	13051.705
925.59	12986.170
925.76	12648.255
925.93	13059.897
926.10	13076.280
926.28	12781.373
926.45	13164.343
926.62	12498.753
926.79	13076.280
926.96	12515.137
927.14	12791.613
927.31	12308.292
927.48	12586.816
927.65	12842.812
927.83	12644.159
928.00	12494.657
928.17	12283.717
928.34	12068.680
928.51	12324.676
928.69	12474.178
928.86	12404.547
929.03	12650.303
929.20	12212.038
929.37	12672.831
929.55	12318.532
929.72	12359.491
929.89	12162.886
930.06	11910.986
930.23	12359.491
930.41	12218.182
930.58	12363.587
930.75	12134.215
930.92	12027.720
931.09	11933.514
931.27	12005.193
931.44	11988.809
931.61	11953.994
931.78	11534.160
931.95	11751.245
932.12	11775.820
932.30	11890.507
932.47	11939.658
932.64	12046.152
932.81	11800.396
932.98	11552.592
933.16	11759.437
933.33	11751.245
933.50	11478.865
933.67	11605.839
933.84	11231.061
934.01	11499.345
934.18	11530.064
934.36	11118.422
934.53	11355.987
934.70	11597.647
934.87	10985.304
935.04	11366.227
935.21	11212.629
935.38	11011.928
935.56	11405.138
935.73	11216.725
935.90	10887.002
936.07	11179.861
936.24	11251.540
936.41	11226.965
936.58	10901.338
936.76	11302.740
936.93	11089.751
937.10	10686.301
937.27	11052.887
937.44	10798.939
937.61	10950.489
937.78	11097.943
937.95	10721.116
938.13	10583.902
938.30	10547.039
938.47	11079.511
938.64	10585.950
938.81	10825.563
938.98	10678.109
939.15	10518.368
939.32	10575.711
939.49	10696.541
939.66	10497.888
939.84	10448.737
940.01	10293.091
940.18	10667.869
940.35	10159.973
940.52	10063.718
940.69	10364.770
940.86	10518.368
941.03	10190.692
941.20	10309.475
941.37	10080.102
941.54	10092.390
941.71	10084.198
941.89	10182.501
942.06	9867.113
942.23	10196.836
942.40	10383.202
942.57	9897.833
942.74	9957.224
942.91	9934.696
943.08	10090.342
943.25	10180.453
943.42	9867.113
943.59	10051.431
943.76	9838.442
943.93	9654.125
944.10	9484.143
944.27	9826.154
944.44	9973.608
944.61	9670.508
944.79	9885.545
944.96	9678.700
945.13	9834.346
945.30	9615.213
945.47	9701.228
945.64	9514.863
945.81	9609.069
945.98	9674.604
946.15	9512.815
946.32	9609.069
946.49	9492.335
946.66	9387.889
946.83	9219.955
947.00	9308.018
947.17	9482.095
947.34	9246.579
947.51	9359.217
947.68	9291.634
947.85	9080.693
948.02	9301.874
948.19	9359.217
948.36	9541.486
948.53	9254.771
948.70	9105.269
948.87	9017.206
949.04	9064.310
949.21	8683.388
949.38	8984.439
949.55	8927.096
949.72	8957.815
949.89	9052.022
950.06	8869.753
950.23	9004.919
950.40	8736.635
950.57	8603.517
950.74	9039.734
950.91	8621.948
951.08	8859.513
951.25	8652.668
951.42	8667.004
951.59	8443.775
951.76	8767.354
951.93	8617.852
952.10	8658.812
952.27	8374.144
952.44	8374.144
952.61	8460.159
952.77	8789.882
952.94	8468.351
953.11	8376.192
953.28	8376.192
953.45	8327.041
953.62	8394.624
953.79	8468.351
953.96	8566.653
954.13	8161.155
954.30	8429.439
954.47	8005.510
954.64	8267.650
954.81	8398.720
954.98	8343.425
955.15	8109.956
955.32	7997.318
955.49	8071.045
955.65	8277.890
955.82	8245.122
955.99	8163.203
956.16	8523.646
956.33	8155.012
956.50	7933.831
956.67	8167.299
956.84	8253.314
957.01	7933.831
957.18	7978.886
957.35	7813.001
957.52	8193.923
957.68	7860.104
957.85	7702.410
958.02	7982.982
958.19	7466.894
958.36	7923.591
958.53	8028.038
958.70	7841.672
958.87	7569.292
959.04	7733.130
959.21	7749.514
959.37	7835.528
959.54	7638.923
959.71	7327.632
959.88	7602.060
960.05	7583.628
960.22	7069.588
960.39	7655.307
960.56	7493.518
960.72	7350.160
960.89	8191.875
961.06	7614.348
961.23	7620.492
961.40	7839.624
961.57	7417.743
961.74	7286.673
961.90	7649.163
962.07	7581.580
962.24	7567.245
962.41	7354.256
962.58	7524.237
962.75	7186.322
962.92	7268.241
963.08	7456.654
963.25	7188.370
963.42	7180.178
963.59	6946.710
963.76	7227.282
963.93	7292.817
964.10	6913.942
964.26	7427.983
964.43	7354.256
964.60	6963.094
964.77	7260.049
964.94	6858.647
965.10	7016.341
965.27	6821.784
965.44	6899.607
965.61	6832.024
965.78	7307.152
965.95	7288.721
966.11	7245.713
966.28	7143.315
966.45	6860.695
966.62	6961.046
966.79	7024.533
966.95	6768.537
967.12	7028.629
967.29	6696.858
967.46	6733.721
967.63	7028.629
967.79	7026.581
967.96	6911.895
968.13	6637.467
968.30	6762.393
968.47	6418.334
968.63	6825.880
968.80	6827.928
968.97	6643.611
969.14	6772.633
969.31	6332.319
969.47	6569.884
969.64	6842.264
969.81	6487.965
969.98	6459.293
970.14	6289.312
970.31	6250.401
970.48	6430.622
970.65	6520.732
970.81	6608.795
970.98	6430.622
971.15	6424.478
971.32	6148.002
971.48	6254.497
971.65	6297.504
971.82	6270.880
971.99	6444.958
972.15	6322.080
972.32	6227.873
972.49	6522.780
972.66	6530.972
972.82	6295.456
972.99	6283.168
973.16	6586.268
973.33	6291.360
973.49	6344.607
973.66	6070.179
973.83	6403.998
974.00	6068.131
974.16	6160.290
974.33	6533.020
974.50	6324.128
974.67	6201.249
974.83	5975.973
975.00	6094.755
975.17	6125.475
975.33	6033.316
975.50	6168.482
975.67	6064.035
975.84	5906.342
976.00	6082.467
976.17	5955.493
976.34	5693.353
976.50	6049.700
976.67	5674.921
976.84	5930.918
977.00	5607.338
977.17	5713.833
977.34	6334.367
977.50	5822.375
977.67	5889.958
977.84	5717.929
978.01	5713.833
978.17	6152.098
978.34	5742.504
978.51	5699.497
978.67	5586.859
978.84	5842.855
979.01	5824.423
979.17	5359.534
979.34	5869.478
979.51	5779.368
979.67	5900.198
979.84	6023.076
980.01	6018.980
980.17	5709.737
980.34	5580.715
980.51	5814.183
980.67	5609.386
980.84	5838.759
981.01	5748.648
981.17	5547.947
981.34	5920.678
981.50	5586.859
981.67	5492.652
981.84	5756.840
982.00	5769.128
982.17	5574.571
982.34	5154.737
982.50	5703.593
982.67	5519.276
982.84	5715.881
983.00	5134.258
983.17	5337.007
983.33	5523.372
983.50	5287.855
983.67	5451.693
983.83	5199.793
984.00	5523.372
984.17	5595.051
984.33	5490.604
984.50	5191.601
984.66	5515.180
984.83	5304.239
985.00	5377.966
985.16	5732.265
985.33	5207.985
985.49	5552.043
985.66	5302.191
985.83	5365.678
985.99	4999.092
986.16	5423.021
986.32	4943.797
986.49	5042.099
986.66	5371.822
986.82	5115.826
986.99	5029.811
987.15	4818.870
987.32	5109.682
987.49	5009.332
987.65	4976.564
987.82	4958.132
987.98	5134.258
988.15	5259.184
988.31	4984.756
988.48	5052.339
988.65	5207.985
988.81	5015.475
988.98	5220.272
989.14	4800.439
989.31	5359.534
989.47	5091.250
989.64	4923.317
989.80	4792.247
989.97	5154.737
990.14	5144.498
990.30	4986.804
990.47	4964.276
990.63	5005.236
990.80	4702.136
990.96	5009.332
991.13	4945.845
991.29	4845.494
991.46	5017.523
991.62	4790.199
991.79	4495.291
991.95	5099.442
992.12	4951.988
992.29	4782.007
992.45	4405.181
992.62	5156.785
992.78	4931.509
992.95	4636.601
993.11	4583.354
993.28	4825.014
993.44	4593.594
993.61	4540.347
993.77	4607.930
993.94	4917.173
994.10	4849.590
994.27	4794.295
994.43	4566.970
994.60	4761.527
994.76	4685.752
994.93	4597.690
995.09	4626.361
995.26	4648.889
995.42	4337.598
995.59	4571.066
995.75	4698.040
995.92	4951.988
996.08	4693.944
996.25	4452.284
996.41	4515.771
996.58	4945.845
996.74	4687.800
996.91	4495.291
997.07	4442.044
997.23	4444.092
997.40	4904.885
997.56	4485.052
997.73	4859.830
997.89	4603.834
998.06	4261.823
998.22	4499.387
998.39	4521.915
998.55	4255.679
998.72	4407.229
998.88	4405.181
999.05	4194.240
999.21	4374.461
999.37	4472.764
999.54	4337.598
999.70	4016.067
999.87	4102.081
1000.03	4319.166
1000.20	4237.247
1000.36	4415.421
1000.52	4208.576
1000.69	4757.431
1000.85	4128.705
1001.02	4435.900
1001.18	4114.369
1001.35	4368.317
1001.51	4042.690
1001.67	4349.886
1001.84	4343.742
1002.00	4011.971
1002.17	4184.000
1002.33	4036.546
1002.50	4100.033
1002.66	4227.008
1002.82	4159.425
1002.99	4046.786
1003.15	4401.085
1003.32	4011.971
1003.48	3751.879
1003.64	4089.794
1003.81	4446.140
1003.97	4337.598
1004.14	4081.602
1004.30	3733.447
1004.46	4227.008
1004.63	4245.439
1004.79	3653.576
1004.95	4052.930
1005.12	3942.340
1005.28	4503.483
1005.45	3934.148
1005.61	3829.702
1005.77	4140.993
1005.94	4018.115
1006.10	3549.130
1006.26	4136.897
1006.43	3774.406
1006.59	3856.325
1006.76	3923.908
1006.92	4083.650
1007.08	4214.720
1007.25	3594.185
1007.41	3788.742
1007.57	3491.787
1007.74	3958.724
1007.90	4134.849
1008.06	3692.488
1008.23	3717.063
1008.39	3762.119
1008.55	3882.949
1008.72	3702.728
1008.88	3575.753
1009.04	3985.347
1009.21	3944.388
1009.37	3643.336
1009.53	3534.794
1009.70	3526.602
1009.86	3717.063
1010.02	3555.274
1010.19	3383.244
1010.35	3725.255
1010.51	3780.550
1010.68	3624.905
1010.84	3563.466
1011.00	3786.694
1011.17	3551.178
1011.33	3547.082
1011.49	3692.488
1011.66	3819.462
1011.82	3844.037
1011.98	3727.303
1012.14	3221.455
1012.31	4011.971
1012.47	3522.506
1012.63	3672.008
1012.80	3657.672
1012.96	3600.329
1013.12	3674.056
1013.29	3448.779
1013.45	3581.897
1013.61	3565.514
1013.77	3618.761
1013.94	3311.565
1014.10	3209.167
1014.26	3254.222
1014.43	3596.233
1014.59	3512.266
1014.75	3260.366
1014.91	3704.775
1015.08	3600.329
1015.24	3459.019
1015.40	3456.971
1015.56	3704.775
1015.73	3100.625
1015.89	2996.178
1016.05	3301.326
1016.21	3004.370
1016.38	3602.377
1016.54	3512.266
1016.70	3182.543
1016.86	3467.211
1017.03	3297.230
1017.19	3268.558
1017.35	3213.263
1017.51	3235.791
1017.68	3180.495
1017.84	3612.617
1018.00	3182.543
1018.16	3295.182
1018.33	3137.488
1018.49	3188.687
1018.65	3325.901
1018.81	3203.023
1018.97	3528.650
1019.14	3395.532
1019.30	3442.635
1019.46	3534.794
1019.62	3067.857
1019.79	3315.661
1019.95	3133.392
1020.11	3153.872
1020.27	3045.330
1020.43	3129.296
1020.60	2977.747
1020.76	3268.558
1020.92	3223.503
1021.08	3037.138
1021.24	3139.536
1021.41	3133.392
1021.57	3418.060
1021.73	2951.123
1021.89	3149.776
1022.05	3389.388
1022.21	3020.754
1022.38	2781.142
1022.54	3000.274
1022.70	2949.075
1022.86	2910.164
1023.02	3010.514
1023.19	3012.562
1023.35	3186.639
1023.51	2981.842
1023.67	2797.525
1023.83	2979.795
1023.99	2785.238
1024.16	2756.566
1024.32	3039.186
1024.48	3037.138
1024.64	3039.186
1024.80	3133.392
1024.96	3028.946
1025.12	3035.090
1025.29	2801.621
1025.45	2818.005
1025.61	2719.702
1025.77	2926.547
1025.93	2889.684
1026.09	3002.322
1026.26	2867.156
1026.42	2750.422
1026.58	2824.149
1026.74	2582.489
1026.90	2373.596
1027.06	2748.374
1027.22	3217.359
1027.38	2877.396
1027.55	2633.688
1027.71	2850.772
1027.87	2881.492
1028.03	2734.038
1028.19	2772.950
1028.35	2744.278
1028.51	2641.880
1028.67	2596.824
1028.83	2543.577
1029.00	2758.614
1029.16	2727.894
1029.32	2738.134
1029.48	2379.740
1029.64	2582.489
1029.80	2654.168
1029.96	3018.706
1030.12	2729.942
1030.28	2641.880
1030.44	2734.038
1030.61	2938.835
1030.77	2484.186
1030.93	2648.024
1031.09	2398.171
1031.25	2418.651
1031.41	2461.658
1031.57	2361.308
1031.73	2627.544
1031.89	2478.042
1032.05	2516.954
1032.21	2320.349
1032.37	2510.810
1032.53	2621.400
1032.69	2586.585
1032.86	2226.142
1033.02	2424.795
1033.18	2471.898
1033.34	2224.094
1033.50	2621.400
1033.66	2607.064
1033.82	2701.271
1033.98	2713.559
1034.14	2475.994
1034.30	2478.042
1034.46	2645.976
1034.62	2480.090
1034.78	2598.872
1034.94	2768.854
1035.10	2639.832
1035.26	2486.234
1035.42	2385.884
1035.58	2693.079
1035.74	2525.145
1035.90	2457.562
1036.06	2330.588
1036.22	2359.260
1036.38	2650.072
1036.54	2285.533
1036.70	2387.932
1036.86	2424.795
1037.02	2410.459
1037.18	2648.024
1037.34	2578.393
1037.50	2322.397
1037.66	2402.267
1037.82	2398.171
1037.98	2639.832
1038.14	2228.190
1038.30	2289.629
1038.46	2232.286
1038.62	2301.917
1038.78	2494.426
1038.94	2170.847
1039.10	2447.323
1039.26	2215.902
1039.42	2422.747
1039.58	2252.766
1039.74	2236.382
1039.90	2435.035
1040.06	2355.164
>>>>>End Spectral Data<<<<<
