SpectraSuite Data File
++++++++++++++++++++++++++++++++++++
Date: Wed Jan 25 18:43:57 EET 2017
User: TheoProf
Dark Spectrum Present: Yes
Reference Spectrum Present: Yes
Number of Sampled Component Spectra: 1
Spectrometers: USB4C02475
Integration Time (usec): 64136 (USB4C02475)
Spectra Averaged: 1 (USB4C02475)
Boxcar Smoothing: 0 (USB4C02475)
Correct for Electrical Dark: No (USB4C02475)
Strobe/Lamp Enabled: No (USB4C02475)
Correct for Detector Non-linearity: No (USB4C02475)
Correct for Stray Light: No (USB4C02475)
Number of Pixels in Processed Spectrum: 3648
>>>>>Begin Processed Spectral Data<<<<<
344.91	-16.667
345.13	-16.667
345.35	-16.667
345.57	7.143
345.79	950.000
346.00	-10.526
346.22	25.000
346.44	10.345
346.66	300.000
346.87	148.276
347.09	-160.000
347.31	130.435
347.53	-7.843
347.74	115.789
347.96	42.857
348.18	183.333
348.40	126.316
348.61	92.308
348.83	84.848
349.05	34.426
349.27	29.167
349.48	-100.000
349.70	29.412
349.92	61.290
350.14	100.000
350.35	125.926
350.57	50.000
350.79	44.118
351.01	49.231
351.22	-100.000
351.44	83.333
351.66	80.000
351.87	166.667
352.09	287.500
352.31	31.429
352.53	65.000
352.74	-65.517
352.96	132.000
353.18	14.634
353.40	1150.000
353.61	38.095
353.83	-109.091
354.05	160.000
354.26	62.121
354.48	116.667
354.70	257.895
354.92	111.538
355.13	-6.897
355.35	66.038
355.57	68.627
355.78	-9.677
356.00	39.583
356.22	72.603
356.44	26.563
356.65	-9.615
356.87	57.692
357.09	134.000
357.30	11.224
357.52	-450.000
357.74	32.727
357.95	4.167
358.17	127.273
358.39	2.326
358.60	334.375
358.82	15.385
359.04	120.000
359.26	21.569
359.47	13.889
359.69	20.792
359.91	-55.000
360.12	-190.000
360.34	113.514
360.56	183.333
360.77	15.385
360.99	50.000
361.21	53.571
361.42	10.638
361.64	487.500
361.86	-37.500
362.07	-7.317
362.29	-29.545
362.51	51.190
362.72	284.615
362.94	84.615
363.16	20.455
363.37	17.187
363.59	-8.000
363.81	-6.250
364.02	128.571
364.24	69.231
364.46	55.769
364.67	650.000
364.89	-130.303
365.11	22.222
365.32	32.143
365.54	-110.526
365.76	66.667
365.97	21.212
366.19	-81.818
366.41	228.571
366.62	-45.714
366.84	285.714
367.05	10.909
367.27	103.030
367.49	58.065
367.70	85.714
367.92	7.895
368.14	16.667
368.35	35.294
368.57	32.911
368.79	32.075
369.00	87.755
369.22	230.000
369.43	20.313
369.65	37.500
369.87	134.286
370.08	58.333
370.30	100.000
370.51	-440.000
370.73	21.212
370.95	-61.538
371.16	29.630
371.38	87.500
371.60	-1100.000
371.81	97.368
372.03	43.478
372.24	-450.000
372.46	-31.034
372.68	0.000
372.89	63.158
373.11	0.000
373.32	25.926
373.54	-50.000
373.76	102.041
373.97	100.000
374.19	-79.487
374.40	22.414
374.62	-40.625
374.84	24.000
375.05	37.037
375.27	72.000
375.48	135.294
375.70	0.000
375.92	82.692
376.13	166.667
376.35	-6.349
376.56	-514.286
376.78	47.727
376.99	70.769
377.21	-30.233
377.43	153.846
377.64	37.662
377.86	92.857
378.07	-440.000
378.29	22.727
378.51	77.778
378.72	56.164
378.94	81.429
379.15	-29.825
379.37	62.000
379.58	193.750
379.80	52.083
380.01	-28.947
380.23	57.778
380.45	-68.421
380.66	20.290
380.88	50.000
381.09	0.000
381.31	-37.500
381.52	0.000
381.74	107.368
381.95	0.000
382.17	-22.727
382.39	36.207
382.60	-33.333
382.82	48.000
383.03	-118.750
383.25	-15.000
383.46	-136.842
383.68	18.182
383.89	20.952
384.11	25.424
384.32	79.070
384.54	23.232
384.76	78.261
384.97	37.255
385.19	-10.417
385.40	58.065
385.62	-1.724
385.83	55.556
386.05	45.000
386.26	44.444
386.48	32.787
386.69	23.457
386.91	0.000
387.12	41.538
387.34	13.462
387.55	-50.000
387.77	90.411
387.98	27.451
388.20	57.895
388.41	17.143
388.63	92.000
388.84	41.176
389.06	78.788
389.27	35.644
389.49	40.000
389.70	1.961
389.92	39.286
390.13	-2.041
390.35	13.235
390.56	43.137
390.78	6.818
390.99	5.634
391.21	51.471
391.42	32.099
391.64	-10.000
391.85	66.667
392.07	-400.000
392.28	-18.033
392.50	-1.111
392.71	-4.839
392.93	6.897
393.14	16.981
393.36	36.792
393.57	18.280
393.79	-5300.000
394.00	70.588
394.22	27.778
394.43	22.581
394.65	0.000
394.86	11.538
395.08	-15.190
395.29	67.059
395.50	-10.976
395.72	61.290
395.93	37.594
396.15	15.323
396.36	49.425
396.58	35.652
396.79	44.595
397.01	10.937
397.22	-22.388
397.44	10.084
397.65	34.167
397.87	108.108
398.08	19.658
398.29	13.235
398.51	30.667
398.72	32.576
398.94	14.035
399.15	17.822
399.37	40.299
399.58	37.234
399.80	21.569
400.01	64.286
400.22	20.370
400.44	3.333
400.65	17.647
400.87	18.103
401.08	27.273
401.30	16.667
401.51	-8.065
401.72	10.968
401.94	27.586
402.15	-16.379
402.37	19.811
402.58	-65.278
402.80	23.288
403.01	-53.086
403.22	1.053
403.44	7.576
403.65	53.676
403.87	30.714
404.08	19.872
404.30	-15.385
404.51	-1.695
404.72	19.149
404.94	25.191
405.15	8.784
405.37	17.323
405.58	-64.286
405.79	-8.421
406.01	22.876
406.22	9.600
406.44	1.418
406.65	10.000
406.86	13.907
407.08	12.963
407.29	15.789
407.51	-3.846
407.72	-8.333
407.93	22.368
408.15	17.178
408.36	4.380
408.58	37.297
408.79	7.042
409.00	5.806
409.22	21.858
409.43	4.965
409.64	2.344
409.86	-4.938
410.07	-1.266
410.29	24.766
410.50	-44.068
410.71	-6.536
410.93	5.882
411.14	1.840
411.35	13.725
411.57	-9.639
411.78	4.734
412.00	-6.294
412.21	-2.055
412.42	-4.192
412.64	-5.303
412.85	35.088
413.06	-1.376
413.28	0.000
413.49	17.874
413.70	7.345
413.92	13.103
414.13	8.036
414.34	18.325
414.56	-2.454
414.77	11.765
414.98	9.948
415.20	0.000
415.41	0.556
415.63	8.772
415.84	20.098
416.05	13.913
416.27	3.636
416.48	28.689
416.69	24.324
416.91	16.908
417.12	23.437
417.33	21.097
417.55	-8.721
417.76	-1.724
417.97	14.146
418.19	20.652
418.40	1.099
418.61	13.866
418.83	1.810
419.04	-0.901
419.25	4.508
419.46	19.651
419.68	13.333
419.89	-6.952
420.10	16.318
420.32	11.554
420.53	6.426
420.74	20.769
420.96	22.709
421.17	0.000
421.38	4.215
421.60	3.750
421.81	11.667
422.02	16.092
422.23	1.660
422.45	-4.815
422.66	14.167
422.87	9.542
423.09	7.930
423.30	6.019
423.51	21.033
423.73	9.957
423.94	14.187
424.15	-2.317
424.36	10.312
424.58	19.723
424.79	11.881
425.00	-4.930
425.22	22.667
425.43	5.435
425.64	6.169
425.85	-12.146
426.07	8.833
426.28	3.767
426.49	5.904
426.71	2.924
426.92	10.355
427.13	6.601
427.34	1.212
427.56	3.869
427.77	-6.250
427.98	-16.129
428.19	-8.494
428.41	-1.365
428.62	-6.164
428.83	5.014
429.04	3.416
429.26	7.965
429.47	16.308
429.68	-2.154
429.89	19.048
430.11	4.167
430.32	18.734
430.53	1.905
430.74	-0.311
430.96	20.157
431.17	13.675
431.38	2.581
431.59	0.917
431.81	-6.452
432.02	-5.618
432.23	3.409
432.44	1.282
432.66	5.028
432.87	-14.286
433.08	7.407
433.29	-4.315
433.51	-0.980
433.72	3.279
433.93	2.564
434.14	7.042
434.35	0.969
434.57	3.145
434.78	1.687
434.99	13.147
435.20	3.883
435.42	17.213
435.63	8.487
435.84	8.390
436.05	13.228
436.26	0.772
436.48	11.402
436.69	3.404
436.90	0.768
437.11	7.263
437.32	3.132
437.54	8.732
437.75	11.133
437.96	0.599
438.17	-1.671
438.38	18.474
438.60	3.358
438.81	11.245
439.02	3.557
439.23	11.111
439.44	3.906
439.66	8.571
439.87	0.581
440.08	12.603
440.29	1.163
440.50	0.777
440.72	4.180
440.93	3.922
441.14	2.677
441.35	0.581
441.56	7.130
441.77	11.494
441.99	6.136
442.20	8.602
442.41	4.114
442.62	5.000
442.83	5.743
443.04	10.475
443.26	5.263
443.47	7.368
443.68	7.744
443.89	3.499
444.10	6.093
444.31	3.085
444.53	3.840
444.74	6.329
444.95	-0.181
445.16	1.342
445.37	-1.294
445.58	1.935
445.80	9.855
446.01	8.401
446.22	13.162
446.43	7.055
446.64	-0.613
446.85	7.481
447.06	12.660
447.28	8.333
447.49	8.491
447.70	8.716
447.91	0.603
448.12	12.933
448.33	8.966
448.54	5.100
448.76	9.104
448.97	11.142
449.18	12.601
449.39	13.017
449.60	15.871
449.81	18.155
450.02	19.182
450.23	20.833
450.45	28.816
450.66	28.679
450.87	35.173
451.08	39.480
451.29	48.957
451.50	49.275
451.71	54.902
451.92	57.230
452.13	65.547
452.35	67.995
452.56	69.788
452.77	82.968
452.98	97.260
453.19	90.932
453.40	90.682
453.61	101.477
453.82	95.207
454.03	94.110
454.25	88.258
454.46	94.259
454.67	90.550
454.88	77.835
455.09	84.157
455.30	81.045
455.51	89.510
455.72	88.471
455.93	101.039
456.14	100.000
456.35	85.778
456.56	99.752
456.78	95.012
456.99	92.910
457.20	92.027
457.41	90.564
457.62	77.899
457.83	87.473
458.04	89.979
458.25	87.876
458.46	82.075
458.67	84.518
458.88	90.309
459.09	84.498
459.30	92.111
459.51	91.410
459.73	89.362
459.94	88.791
460.15	91.820
460.36	88.900
460.57	84.698
460.78	91.712
460.99	86.114
461.20	82.921
461.41	87.105
461.62	89.152
461.83	86.892
462.04	87.232
462.25	88.339
462.46	93.273
462.67	85.945
462.88	97.834
463.09	91.904
463.30	85.126
463.51	90.509
463.72	86.968
463.93	89.805
464.15	93.316
464.36	88.268
464.57	87.550
464.78	88.032
464.99	81.128
465.20	85.820
465.41	91.774
465.62	91.326
465.83	93.419
466.04	95.748
466.25	96.824
466.46	102.030
466.67	99.926
466.88	92.774
467.09	84.099
467.30	90.804
467.51	90.627
467.72	92.907
467.93	93.446
468.14	91.003
468.35	89.264
468.56	89.221
468.77	93.892
468.98	88.156
469.19	94.448
469.40	97.145
469.61	88.580
469.82	97.727
470.03	88.650
470.24	95.426
470.45	88.131
470.66	94.550
470.87	93.968
471.08	99.217
471.29	98.697
471.50	90.000
471.71	95.227
471.92	94.958
472.13	93.566
472.34	95.094
472.55	91.845
472.76	95.375
472.97	91.156
473.18	95.388
473.39	92.828
473.60	94.127
473.81	92.926
474.01	93.531
474.22	93.107
474.43	89.985
474.64	93.954
474.85	89.683
475.06	92.185
475.27	92.402
475.48	90.556
475.69	89.225
475.90	93.569
476.11	95.148
476.32	95.322
476.53	98.562
476.74	97.934
476.95	98.537
477.16	94.660
477.37	97.337
477.58	91.403
477.79	90.184
478.00	88.272
478.21	88.427
478.41	89.623
478.62	90.083
478.83	92.952
479.04	95.499
479.25	92.569
479.46	95.232
479.67	93.051
479.88	93.448
480.09	97.063
480.30	98.132
480.51	94.543
480.72	96.259
480.93	94.156
481.14	88.885
481.34	88.397
481.55	90.318
481.76	89.264
481.97	93.418
482.18	94.869
482.39	90.790
482.60	89.739
482.81	95.047
483.02	94.353
483.23	91.546
483.44	89.725
483.65	95.109
483.85	94.864
484.06	97.363
484.27	99.541
484.48	103.126
484.69	99.907
484.90	102.953
485.11	104.222
485.32	102.232
485.53	100.212
485.73	98.447
485.94	99.298
486.15	94.467
486.36	92.742
486.57	93.133
486.78	91.897
486.99	91.858
487.20	88.368
487.41	91.649
487.61	94.580
487.82	99.527
488.03	97.706
488.24	98.137
488.45	96.423
488.66	92.861
488.87	88.235
489.08	92.386
489.28	93.523
489.49	92.701
489.70	91.683
489.91	90.859
490.12	88.700
490.33	89.242
490.54	92.817
490.74	94.151
490.95	94.095
491.16	94.014
491.37	95.232
491.58	95.186
491.79	96.098
492.00	93.579
492.20	97.087
492.41	96.268
492.62	94.971
492.83	93.019
493.04	97.301
493.25	93.737
493.45	98.070
493.66	93.035
493.87	89.318
494.08	86.807
494.29	89.661
494.50	88.598
494.70	87.590
494.91	94.550
495.12	96.380
495.33	99.089
495.54	96.341
495.75	97.824
495.95	99.751
496.16	98.392
496.37	94.496
496.58	93.840
496.79	95.470
496.99	96.299
497.20	98.224
497.41	97.310
497.62	92.363
497.83	94.994
498.04	93.296
498.24	95.106
498.45	95.407
498.66	94.145
498.87	92.085
499.08	86.059
499.28	82.616
499.49	75.301
499.70	72.238
499.91	64.826
500.12	58.605
500.32	51.644
500.53	49.042
500.74	40.236
500.95	33.939
501.15	27.116
501.36	22.455
501.57	17.117
501.78	12.207
501.99	10.162
502.19	7.276
502.40	4.793
502.61	2.885
502.82	2.888
503.02	2.257
503.23	1.539
503.44	1.730
503.65	2.691
503.86	1.685
504.06	2.324
504.27	1.847
504.48	1.734
504.69	1.301
504.89	1.234
505.10	1.807
505.31	1.680
505.52	1.337
505.72	1.586
505.93	2.997
506.14	1.722
506.35	1.698
506.55	0.909
506.76	1.953
506.97	1.765
507.18	0.792
507.38	1.714
507.59	1.132
507.80	0.534
508.01	1.662
508.21	0.133
508.42	1.046
508.63	1.044
508.84	1.375
509.04	1.147
509.25	0.750
509.46	0.897
509.67	0.167
509.87	1.066
510.08	1.384
510.29	0.930
510.49	1.317
510.70	0.670
510.91	0.840
511.12	0.797
511.32	0.625
511.53	1.474
511.74	1.942
511.94	0.650
512.15	0.713
512.36	1.043
512.57	0.665
512.77	0.166
512.98	0.894
513.19	0.629
513.39	0.657
513.60	1.272
513.81	0.743
514.01	0.980
514.22	1.044
514.43	0.907
514.64	1.167
514.84	0.380
515.05	0.519
515.26	0.904
515.46	0.251
515.67	0.546
515.88	0.800
516.08	-0.029
516.29	0.920
516.50	1.227
516.70	1.005
516.91	0.577
517.12	0.273
517.32	1.026
517.53	0.818
517.74	0.469
517.95	1.015
518.15	1.189
518.36	0.101
518.57	0.375
518.77	0.411
518.98	1.228
519.19	0.357
519.39	0.142
519.60	0.230
519.80	0.871
520.01	0.890
520.22	1.029
520.42	0.436
520.63	0.461
520.84	0.433
521.04	0.813
521.25	0.145
521.46	0.618
521.66	0.421
521.87	0.594
522.08	0.650
522.28	0.296
522.49	0.654
522.70	0.799
522.90	0.440
523.11	0.153
523.31	0.962
523.52	0.532
523.73	0.700
523.93	1.276
524.14	-0.249
524.35	0.822
524.55	1.479
524.76	0.378
524.97	1.420
525.17	0.675
525.38	0.950
525.58	0.746
525.79	0.507
526.00	0.557
526.20	0.745
526.41	0.764
526.61	0.258
526.82	0.909
527.03	1.356
527.23	1.016
527.44	0.589
527.64	0.601
527.85	0.503
528.06	0.811
528.26	0.371
528.47	0.846
528.68	0.445
528.88	0.213
529.09	0.086
529.29	0.921
529.50	0.523
529.70	0.723
529.91	0.409
530.12	0.668
530.32	0.849
530.53	0.594
530.73	0.909
530.94	0.261
531.15	0.620
531.35	0.831
531.56	0.478
531.76	1.113
531.97	0.689
532.17	1.227
532.38	0.987
532.59	1.104
532.79	0.628
533.00	0.881
533.20	0.882
533.41	1.025
533.61	0.733
533.82	1.058
534.03	0.942
534.23	0.534
534.44	0.702
534.64	0.811
534.85	1.141
535.05	0.872
535.26	0.172
535.46	1.335
535.67	1.206
535.88	1.477
536.08	0.894
536.29	0.937
536.49	0.160
536.70	1.335
536.90	0.799
537.11	1.149
537.31	0.859
537.52	0.701
537.72	1.624
537.93	0.939
538.13	1.170
538.34	1.181
538.55	1.123
538.75	1.188
538.96	1.078
539.16	1.261
539.37	1.395
539.57	0.811
539.78	1.261
539.98	1.646
540.19	1.185
540.39	1.937
540.60	1.682
540.80	1.205
541.01	1.292
541.21	1.869
541.42	1.661
541.62	1.163
541.83	1.965
542.03	1.762
542.24	1.746
542.44	1.838
542.65	1.675
542.85	2.074
543.06	2.317
543.26	1.864
543.47	1.860
543.67	1.957
543.88	1.738
544.08	1.741
544.29	1.712
544.49	2.135
544.70	1.618
544.90	1.649
545.11	2.087
545.31	1.871
545.52	2.108
545.72	2.292
545.93	2.770
546.13	1.981
546.34	2.624
546.54	2.430
546.75	2.524
546.95	2.198
547.15	2.638
547.36	2.726
547.56	1.961
547.77	2.030
547.97	1.586
548.18	2.092
548.38	2.465
548.59	2.115
548.79	2.628
549.00	2.164
549.20	2.423
549.41	2.931
549.61	2.928
549.81	2.537
550.02	2.732
550.22	3.119
550.43	3.257
550.63	4.560
550.84	5.231
551.04	7.163
551.25	9.483
551.45	13.004
551.65	15.803
551.86	18.323
552.06	22.722
552.27	28.395
552.47	32.677
552.68	38.965
552.88	45.559
553.08	53.085
553.29	59.683
553.49	66.524
553.70	71.057
553.90	75.756
554.11	78.437
554.31	83.932
554.51	88.371
554.72	88.761
554.92	91.533
555.13	93.029
555.33	93.897
555.53	96.208
555.74	97.127
555.94	96.070
556.15	95.162
556.35	95.076
556.56	97.162
556.76	94.472
556.96	98.119
557.17	96.388
557.37	96.508
557.58	97.151
557.78	99.796
557.98	101.605
558.19	103.092
558.39	102.632
558.59	99.707
558.80	95.568
559.00	95.660
559.21	95.298
559.41	95.233
559.61	96.077
559.82	96.352
560.02	95.666
560.23	95.365
560.43	94.711
560.63	92.264
560.84	95.847
561.04	96.861
561.24	98.555
561.45	101.998
561.65	103.361
561.85	101.301
562.06	101.409
562.26	101.399
562.47	100.101
562.67	100.877
562.87	98.672
563.08	96.068
563.28	95.440
563.48	93.629
563.69	92.824
563.89	94.496
564.09	95.021
564.30	94.348
564.50	93.802
564.70	93.129
564.91	92.811
565.11	92.691
565.31	92.459
565.52	90.560
565.72	90.472
565.92	87.308
566.13	89.382
566.33	92.136
566.53	93.958
566.74	96.798
566.94	97.895
567.14	99.411
567.35	101.312
567.55	99.680
567.75	99.390
567.96	97.089
568.16	93.601
568.36	91.113
568.57	91.152
568.77	93.022
568.97	94.383
569.18	96.612
569.38	96.018
569.58	95.744
569.79	95.696
569.99	95.013
570.19	95.046
570.39	97.447
570.60	96.689
570.80	95.987
571.00	96.776
571.21	95.198
571.41	97.131
571.61	97.341
571.82	95.348
572.02	95.913
572.22	95.382
572.42	94.358
572.63	94.268
572.83	96.340
573.03	93.222
573.24	93.570
573.44	92.679
573.64	93.672
573.84	94.726
574.05	97.201
574.25	97.941
574.45	98.941
574.66	99.978
574.86	99.934
575.06	101.027
575.26	99.962
575.47	101.054
575.67	97.695
575.87	95.808
576.07	96.819
576.28	95.700
576.48	93.152
576.68	94.609
576.88	94.722
577.09	96.105
577.29	98.344
577.49	97.910
577.69	98.132
577.90	98.454
578.10	99.325
578.30	98.030
578.50	97.044
578.71	95.786
578.91	95.946
579.11	96.854
579.31	99.625
579.52	102.211
579.72	103.612
579.92	100.700
580.12	99.808
580.33	97.519
580.53	95.134
580.73	93.871
580.93	92.958
581.13	93.052
581.34	93.528
581.54	95.551
581.74	99.522
581.94	98.540
582.15	98.079
582.35	96.142
582.55	93.741
582.75	93.394
582.95	95.927
583.16	94.476
583.36	92.573
583.56	93.714
583.76	93.903
583.96	92.561
584.17	94.263
584.37	95.319
584.57	96.316
584.77	94.821
584.97	93.707
585.18	91.960
585.38	91.103
585.58	90.883
585.78	91.751
585.98	96.297
586.19	102.016
586.39	103.977
586.59	105.731
586.79	101.688
586.99	98.638
587.20	95.540
587.40	95.093
587.60	92.750
587.80	93.772
588.00	94.535
588.20	95.952
588.41	97.080
588.61	99.550
588.81	96.430
589.01	93.401
589.21	94.099
589.41	93.972
589.62	92.750
589.82	93.265
590.02	92.464
590.22	93.650
590.42	92.764
590.62	93.861
590.83	93.226
591.03	95.575
591.23	94.233
591.43	95.887
591.63	96.410
591.83	96.060
592.03	95.223
592.24	94.927
592.44	96.589
592.64	94.438
592.84	95.160
593.04	93.211
593.24	94.543
593.44	95.644
593.65	95.606
593.85	95.841
594.05	95.691
594.25	96.171
594.45	96.847
594.65	95.616
594.85	93.811
595.06	90.751
595.26	89.205
595.46	89.945
595.66	90.388
595.86	92.136
596.06	93.885
596.26	95.073
596.46	97.122
596.66	98.915
596.87	98.444
597.07	98.361
597.27	99.257
597.47	99.605
597.67	101.980
597.87	98.797
598.07	100.250
598.27	102.350
598.47	100.270
598.67	100.088
598.88	98.533
599.08	95.800
599.28	95.041
599.48	93.679
599.68	94.129
599.88	94.342
600.08	94.969
600.28	95.258
600.48	96.467
600.68	96.181
600.88	97.176
601.09	96.126
601.29	96.362
601.49	98.639
601.69	96.436
601.89	98.167
602.09	96.362
602.29	98.646
602.49	96.953
602.69	96.249
602.89	93.426
603.09	90.585
603.29	88.947
603.49	88.316
603.69	88.624
603.90	88.171
604.10	89.034
604.30	88.713
604.50	90.775
604.70	90.910
604.90	90.163
605.10	92.282
605.30	93.827
605.50	98.596
605.70	98.363
605.90	99.362
606.10	100.160
606.30	100.669
606.50	98.671
606.70	98.476
606.90	98.384
607.10	98.453
607.30	100.000
607.50	100.487
607.70	99.031
607.90	96.247
608.10	93.474
608.30	89.434
608.50	83.382
608.70	77.445
608.90	70.740
609.11	64.359
609.31	60.452
609.51	54.465
609.71	49.975
609.91	44.919
610.11	39.530
610.31	36.072
610.51	31.472
610.71	27.947
610.91	23.013
611.11	19.291
611.31	15.410
611.51	12.537
611.71	9.799
611.91	7.281
612.11	5.963
612.31	4.633
612.51	3.511
612.71	2.914
612.91	2.549
613.11	2.040
613.31	1.705
613.51	1.521
613.71	1.599
613.91	1.345
614.11	1.486
614.31	1.207
614.50	1.092
614.70	1.168
614.90	0.969
615.10	0.973
615.30	1.099
615.50	1.002
615.70	0.814
615.90	1.159
616.10	0.913
616.30	0.872
616.50	0.930
616.70	0.917
616.90	0.690
617.10	0.830
617.30	0.857
617.50	0.927
617.70	0.561
617.90	0.769
618.10	0.849
618.30	0.926
618.50	0.697
618.70	0.688
618.90	0.687
619.10	0.772
619.30	0.817
619.49	0.453
619.69	0.819
619.89	0.794
620.09	0.823
620.29	0.775
620.49	0.423
620.69	0.638
620.89	0.462
621.09	0.576
621.29	0.727
621.49	0.726
621.69	0.751
621.89	0.380
622.09	0.642
622.29	0.628
622.48	0.653
622.68	0.429
622.88	0.498
623.08	0.572
623.28	0.353
623.48	0.393
623.68	0.509
623.88	0.435
624.08	0.507
624.28	0.705
624.48	0.401
624.67	0.483
624.87	0.705
625.07	0.462
625.27	0.613
625.47	0.615
625.67	0.500
625.87	0.736
626.07	0.566
626.27	0.556
626.47	0.836
626.66	0.443
626.86	0.491
627.06	0.315
627.26	0.359
627.46	0.392
627.66	0.640
627.86	0.350
628.06	0.303
628.25	0.474
628.45	0.319
628.65	0.319
628.85	0.680
629.05	0.512
629.25	0.353
629.45	0.470
629.65	0.530
629.84	0.418
630.04	0.666
630.24	0.512
630.44	0.685
630.64	0.450
630.84	0.356
631.04	0.694
631.23	0.468
631.43	0.649
631.63	0.528
631.83	0.494
632.03	0.641
632.23	0.492
632.42	0.656
632.62	0.528
632.82	0.588
633.02	0.644
633.22	0.493
633.42	0.595
633.62	0.561
633.81	0.599
634.01	0.475
634.21	0.557
634.41	0.717
634.61	0.563
634.80	0.509
635.00	0.669
635.20	0.744
635.40	0.596
635.60	0.437
635.80	0.557
635.99	0.756
636.19	0.743
636.39	0.679
636.59	0.852
636.79	0.957
636.98	0.529
637.18	0.669
637.38	0.539
637.58	0.703
637.78	0.691
637.97	0.709
638.17	0.663
638.37	0.718
638.57	0.727
638.77	0.624
638.96	0.714
639.16	0.867
639.36	0.713
639.56	0.732
639.76	0.870
639.95	0.720
640.15	0.720
640.35	0.888
640.55	0.671
640.75	0.912
640.94	1.046
641.14	0.641
641.34	0.773
641.54	0.991
641.73	0.735
641.93	0.773
642.13	0.885
642.33	0.721
642.53	0.844
642.72	0.930
642.92	0.980
643.12	0.995
643.32	1.078
643.51	1.000
643.71	1.037
643.91	1.088
644.11	1.160
644.30	1.259
644.50	0.968
644.70	0.814
644.90	0.936
645.09	0.920
645.29	1.122
645.49	1.169
645.69	1.014
645.88	1.059
646.08	1.165
646.28	1.190
646.48	1.230
646.67	1.339
646.87	1.528
647.07	1.320
647.26	1.234
647.46	1.348
647.66	1.176
647.86	1.472
648.05	1.521
648.25	1.310
648.45	1.366
648.65	1.386
648.84	1.804
649.04	1.713
649.24	1.957
649.43	1.774
649.63	1.972
649.83	1.888
650.03	2.140
650.22	2.456
650.42	2.819
650.62	3.281
650.81	3.829
651.01	4.823
651.21	6.098
651.40	7.601
651.60	9.166
651.80	10.959
652.00	13.659
652.19	15.596
652.39	18.822
652.59	21.399
652.78	25.539
652.98	29.216
653.18	33.858
653.37	37.926
653.57	43.450
653.77	48.905
653.96	54.446
654.16	61.999
654.36	66.314
654.55	69.058
654.75	71.515
654.95	72.907
655.14	73.368
655.34	75.268
655.54	76.309
655.73	78.584
655.93	81.641
656.13	83.752
656.32	85.223
656.52	87.712
656.72	87.416
656.91	87.523
657.11	87.205
657.31	87.688
657.50	89.004
657.70	90.960
657.90	93.996
658.09	94.894
658.29	96.688
658.49	97.058
658.68	96.841
658.88	95.082
659.07	95.976
659.27	98.645
659.47	97.506
659.66	96.020
659.86	93.636
660.06	93.895
660.25	91.964
660.45	94.781
660.64	95.921
660.84	94.975
661.04	96.146
661.23	95.208
661.43	96.111
661.63	96.951
661.82	95.376
662.02	95.785
662.21	95.437
662.41	95.274
662.61	94.866
662.80	95.937
663.00	95.732
663.19	96.783
663.39	95.722
663.59	97.100
663.78	96.892
663.98	97.663
664.17	98.515
664.37	97.995
664.57	94.165
664.76	93.954
664.96	91.724
665.15	90.042
665.35	89.197
665.55	88.096
665.74	87.498
665.94	88.064
666.13	88.104
666.33	87.503
666.53	89.646
666.72	91.783
666.92	94.472
667.11	96.269
667.31	98.124
667.50	99.587
667.70	99.618
667.90	101.467
668.09	100.975
668.29	99.759
668.48	99.326
668.68	99.069
668.87	97.419
669.07	96.264
669.26	94.407
669.46	93.208
669.66	93.980
669.85	94.172
670.05	94.280
670.24	93.527
670.44	93.423
670.63	95.051
670.83	94.604
671.02	93.976
671.22	92.781
671.42	94.815
671.61	96.216
671.81	96.607
672.00	97.859
672.20	94.848
672.39	94.456
672.59	93.534
672.78	94.050
672.98	93.901
673.17	95.234
673.37	94.459
673.56	94.630
673.76	95.650
673.95	96.550
674.15	95.269
674.34	95.316
674.54	93.616
674.73	90.261
674.93	90.579
675.13	91.184
675.32	92.344
675.52	94.057
675.71	96.485
675.91	98.002
676.10	98.108
676.30	95.752
676.49	95.670
676.69	94.321
676.88	95.603
677.08	94.734
677.27	94.798
677.47	93.783
677.66	93.431
677.86	92.092
678.05	90.249
678.24	88.758
678.44	86.903
678.63	86.561
678.83	87.070
679.02	88.640
679.22	89.961
679.41	93.155
679.61	95.290
679.80	98.103
680.00	98.005
680.19	96.862
680.39	95.995
680.58	94.878
680.78	94.925
680.97	96.469
681.17	94.165
681.36	93.708
681.56	93.147
681.75	93.362
681.94	94.611
682.14	94.436
682.33	94.019
682.53	94.383
682.72	93.224
682.92	92.533
683.11	91.734
683.31	92.209
683.50	93.686
683.69	95.815
683.89	98.136
684.08	98.684
684.28	98.521
684.47	96.540
684.67	97.396
684.86	97.395
685.06	96.976
685.25	96.901
685.44	95.935
685.64	94.862
685.83	93.781
686.03	92.077
686.22	91.232
686.42	93.389
686.61	94.038
686.80	95.320
687.00	94.507
687.19	95.035
687.39	92.854
687.58	92.703
687.77	92.691
687.97	89.411
688.16	89.466
688.36	90.720
688.55	92.114
688.74	91.726
688.94	92.672
689.13	91.951
689.33	91.119
689.52	90.972
689.71	88.261
689.91	87.408
690.10	87.648
690.30	88.314
690.49	89.682
690.68	93.058
690.88	94.633
691.07	97.308
691.27	98.740
691.46	101.370
691.65	105.469
691.85	105.951
692.04	107.561
692.23	107.635
692.43	107.602
692.62	105.632
692.82	104.386
693.01	99.439
693.20	97.359
693.40	95.425
693.59	94.762
693.78	93.714
693.98	93.526
694.17	92.988
694.36	92.074
694.56	91.756
694.75	90.849
694.94	90.946
695.14	91.769
695.33	91.400
695.53	93.599
695.72	95.095
695.91	96.215
696.11	96.692
696.30	96.397
696.49	96.789
696.69	97.185
696.88	97.733
697.07	99.318
697.27	98.319
697.46	96.080
697.65	92.662
697.85	89.121
698.04	88.256
698.23	89.500
698.43	90.506
698.62	91.622
698.81	89.946
699.01	90.900
699.20	91.589
699.39	94.197
699.58	96.763
699.78	98.383
699.97	96.049
700.16	95.186
700.36	94.053
700.55	94.111
700.74	92.621
700.94	92.553
701.13	92.425
701.32	91.152
701.52	90.936
701.71	90.709
701.90	90.290
702.09	90.479
702.29	91.875
702.48	93.986
702.67	94.674
702.87	94.968
703.06	92.161
703.25	90.834
703.44	88.241
703.64	87.983
703.83	88.819
704.02	89.939
704.22	91.929
704.41	93.482
704.60	93.783
704.79	93.615
704.99	94.365
705.18	93.360
705.37	92.643
705.56	89.936
705.76	88.410
705.95	86.090
706.14	87.641
706.33	87.647
706.53	88.894
706.72	89.527
706.91	90.580
707.11	92.009
707.30	92.209
707.49	93.479
707.68	95.367
707.88	93.430
708.07	91.132
708.26	85.824
708.45	81.675
708.64	77.462
708.84	74.841
709.03	71.019
709.22	66.189
709.41	61.572
709.61	57.189
709.80	52.323
709.99	47.553
710.18	42.592
710.38	37.947
710.57	34.882
710.76	31.331
710.95	27.770
711.14	23.403
711.34	20.404
711.53	17.260
711.72	14.693
711.91	11.953
712.11	10.479
712.30	8.899
712.49	7.285
712.68	6.009
712.87	5.093
713.07	4.139
713.26	3.297
713.45	2.627
713.64	2.338
713.83	2.063
714.03	1.885
714.22	1.488
714.41	1.328
714.60	1.078
714.79	1.160
714.99	1.279
715.18	1.078
715.37	0.899
715.56	1.117
715.75	0.951
715.94	1.326
716.14	1.029
716.33	0.814
716.52	0.666
716.71	0.868
716.90	1.047
717.10	0.853
717.29	0.783
717.48	0.498
717.67	0.677
717.86	0.802
718.05	0.630
718.24	0.733
718.44	0.567
718.63	0.663
718.82	0.802
719.01	0.496
719.20	0.478
719.39	0.393
719.59	0.577
719.78	0.559
719.97	0.547
720.16	0.398
720.35	0.552
720.54	0.594
720.73	0.336
720.93	0.781
721.12	0.488
721.31	0.652
721.50	0.458
721.69	0.493
721.88	0.575
722.07	0.380
722.27	0.464
722.46	0.270
722.65	0.408
722.84	0.244
723.03	0.565
723.22	0.464
723.41	0.436
723.60	0.410
723.79	0.421
723.99	0.323
724.18	0.354
724.37	0.230
724.56	0.487
724.75	0.374
724.94	0.499
725.13	0.479
725.32	0.485
725.51	0.346
725.71	0.339
725.90	0.385
726.09	0.571
726.28	0.328
726.47	0.177
726.66	0.350
726.85	0.290
727.04	0.620
727.23	0.460
727.42	0.478
727.61	0.204
727.81	0.395
728.00	0.568
728.19	0.106
728.38	0.213
728.57	0.378
728.76	0.298
728.95	0.483
729.14	0.226
729.33	0.431
729.52	0.367
729.71	0.371
729.90	0.246
730.09	0.203
730.28	0.136
730.48	0.198
730.67	0.489
730.86	0.414
731.05	0.058
731.24	0.354
731.43	0.281
731.62	0.243
731.81	0.364
732.00	0.211
732.19	0.304
732.38	0.032
732.57	0.477
732.76	0.281
732.95	0.187
733.14	0.309
733.33	0.155
733.52	0.353
733.71	0.477
733.90	0.094
734.09	0.324
734.28	0.041
734.47	0.161
734.66	0.156
734.85	0.161
735.04	0.096
735.23	0.082
735.42	0.311
735.61	0.192
735.81	0.090
736.00	0.239
736.19	0.063
736.38	0.136
736.57	-0.017
736.76	0.225
736.95	0.131
737.14	0.107
737.33	0.475
737.52	0.108
737.71	0.186
737.90	0.351
738.09	-0.297
738.28	0.027
738.47	0.017
738.66	0.245
738.85	0.174
739.04	0.099
739.22	-0.006
739.41	0.451
739.60	0.110
739.79	0.384
739.98	0.109
740.17	0.346
740.36	0.488
740.55	0.183
740.74	0.055
740.93	0.274
741.12	0.246
741.31	-0.142
741.50	0.337
741.69	0.383
741.88	0.291
742.07	0.108
742.26	0.240
742.45	0.087
742.64	0.150
742.83	0.407
743.02	0.083
743.21	0.125
743.40	0.389
743.59	0.300
743.78	0.303
743.97	-0.135
744.16	0.212
744.34	0.375
744.53	0.630
744.72	0.307
744.91	0.395
745.10	0.168
745.29	0.289
745.48	0.231
745.67	0.165
745.86	0.307
746.05	0.210
746.24	0.253
746.43	0.006
746.62	0.336
746.81	0.226
747.00	0.235
747.18	0.273
747.37	-0.026
747.56	0.492
747.75	0.026
747.94	-0.158
748.13	0.027
748.32	0.329
748.51	0.269
748.70	0.035
748.89	-0.035
749.08	0.235
749.26	0.034
749.45	0.267
749.64	0.264
749.83	-0.092
750.02	0.244
750.21	0.152
750.40	0.168
750.59	0.007
750.78	0.275
750.96	0.233
751.15	0.165
751.34	0.179
751.53	0.181
751.72	-0.068
751.91	-0.052
752.10	0.244
752.29	0.313
752.47	0.396
752.66	0.243
752.85	0.038
753.04	0.048
753.23	0.152
753.42	0.207
753.61	0.168
753.80	0.224
753.98	0.319
754.17	0.072
754.36	0.328
754.55	0.239
754.74	0.275
754.93	0.409
755.12	-0.009
755.30	0.474
755.49	-0.309
755.68	0.452
755.87	0.080
756.06	0.349
756.25	0.355
756.43	0.255
756.62	0.589
756.81	0.440
757.00	0.485
757.19	0.301
757.38	-0.117
757.56	0.344
757.75	0.244
757.94	0.301
758.13	0.348
758.32	0.730
758.51	0.524
758.69	0.119
758.88	0.546
759.07	0.494
759.26	0.416
759.45	0.321
759.63	0.116
759.82	0.200
760.01	0.266
760.20	-0.218
760.39	0.405
760.57	-0.055
760.76	0.222
760.95	0.429
761.14	-0.045
761.33	0.034
761.51	0.614
761.70	-0.162
761.89	0.515
762.08	0.821
762.27	0.759
762.45	0.140
762.64	0.369
762.83	-0.144
763.02	0.359
763.21	0.240
763.39	0.089
763.58	-0.038
763.77	0.358
763.96	0.296
764.14	0.433
764.33	0.403
764.52	0.477
764.71	0.240
764.89	0.320
765.08	0.886
765.27	-0.147
765.46	-0.306
765.65	0.133
765.83	0.203
766.02	-0.473
766.21	0.564
766.40	-0.175
766.58	0.439
766.77	0.826
766.96	0.275
767.15	0.581
767.33	0.367
767.52	0.679
767.71	-0.109
767.90	0.016
768.08	0.285
768.27	-0.401
768.46	-0.145
768.64	0.000
768.83	-0.016
769.02	-0.085
769.21	-0.320
769.39	-0.545
769.58	0.034
769.77	-0.257
769.96	1.092
770.14	-0.239
770.33	0.759
770.52	1.134
770.70	0.324
770.89	0.120
771.08	0.392
771.27	1.376
771.45	-0.223
771.64	0.554
771.83	0.577
772.01	0.140
772.20	0.953
772.39	0.490
772.57	-0.236
772.76	0.238
772.95	0.894
773.14	1.095
773.32	-0.407
773.51	0.152
773.70	0.075
773.88	-0.116
774.07	-0.641
774.26	0.550
774.44	0.306
774.63	0.613
774.82	-0.449
775.00	0.339
775.19	0.646
775.38	-0.038
775.56	-0.572
775.75	0.749
775.94	-0.552
776.12	0.822
776.31	0.601
776.50	1.058
776.68	0.330
776.87	1.106
777.06	0.305
777.24	-0.711
777.43	0.062
777.62	-0.390
777.80	-0.225
777.99	-0.124
778.18	1.418
778.36	0.063
778.55	-0.352
778.74	0.351
778.92	-0.643
779.11	1.638
779.29	0.347
779.48	0.922
779.67	-0.349
779.85	0.262
780.04	0.041
780.23	1.169
780.41	-0.426
780.60	-0.224
780.79	0.239
780.97	-0.080
781.16	0.747
781.34	-0.696
781.53	-0.139
781.72	0.724
781.90	0.000
782.09	0.874
782.28	0.233
782.46	0.432
782.65	0.588
782.83	0.141
783.02	-0.301
783.21	-0.158
783.39	0.654
783.58	-0.232
783.76	0.134
783.95	-0.306
784.14	-0.037
784.32	0.572
784.51	0.254
784.69	-0.269
784.88	0.418
785.06	-0.542
785.25	0.214
785.44	-0.337
785.62	0.422
785.81	0.054
785.99	0.343
786.18	-0.628
786.37	-0.167
786.55	0.420
786.74	-0.419
786.92	0.356
787.11	0.990
787.29	-0.768
787.48	0.478
787.67	0.690
787.85	0.390
788.04	0.251
788.22	0.771
788.41	1.028
788.59	0.639
788.78	-0.150
788.96	0.058
789.15	0.039
789.34	-0.688
789.52	0.559
789.71	0.095
789.89	0.890
790.08	0.000
790.26	-0.090
790.45	-0.282
790.63	-0.232
790.82	0.561
791.00	-0.472
791.19	-0.053
791.38	0.307
791.56	0.160
791.75	-0.123
791.93	0.297
792.12	0.606
792.30	0.715
792.49	-0.446
792.67	0.172
792.86	0.000
793.04	-0.356
793.23	0.121
793.41	0.363
793.60	0.659
793.78	0.932
793.97	0.434
794.15	0.400
794.34	0.446
794.52	0.121
794.71	-0.187
794.89	0.284
795.08	-0.357
795.26	-0.422
795.45	0.519
795.63	0.512
795.82	0.552
796.00	0.148
796.19	0.044
796.37	-0.374
796.56	0.104
796.74	1.363
796.93	0.729
797.11	0.145
797.30	-0.158
797.48	0.043
797.67	0.129
797.85	-0.073
798.04	1.034
798.22	-0.420
798.41	-0.397
798.59	-0.077
798.77	0.168
798.96	-0.185
799.14	-0.108
799.33	-0.045
799.51	-0.302
799.70	0.418
799.88	0.439
800.07	-0.746
800.25	0.591
800.44	-0.293
800.62	-0.457
800.80	0.410
800.99	0.532
801.17	-0.237
801.36	0.667
801.54	0.177
801.73	-0.309
801.91	-0.846
802.10	0.116
802.28	0.364
802.46	0.489
802.65	-0.230
802.83	0.274
803.02	0.029
803.20	0.313
803.39	0.087
803.57	-0.045
803.75	-0.419
803.94	0.213
804.12	0.794
804.31	0.344
804.49	0.096
804.67	0.771
804.86	0.000
805.04	-0.306
805.23	0.920
805.41	0.352
805.59	-0.373
805.78	0.048
805.96	0.140
806.15	0.323
806.33	-0.216
806.51	0.475
806.70	0.091
806.88	-0.107
807.07	0.772
807.25	0.806
807.43	-0.301
807.62	0.766
807.80	-0.430
807.99	0.360
808.17	0.402
808.35	-0.598
808.54	0.913
808.72	-0.151
808.90	0.497
809.09	0.090
809.27	-0.181
809.46	-0.419
809.64	-0.076
809.82	-0.958
810.01	-0.139
810.19	0.552
810.37	-0.433
810.56	-0.417
810.74	0.300
810.92	-0.030
811.11	0.075
811.29	0.320
811.48	0.140
811.66	0.488
811.84	0.322
812.03	0.180
812.21	0.475
812.39	-0.097
812.58	0.214
812.76	0.280
812.94	-0.241
813.13	0.642
813.31	0.535
813.49	0.221
813.68	0.764
813.86	0.553
814.04	-0.015
814.23	0.576
814.41	-0.030
814.59	-0.074
814.78	0.207
814.96	0.631
815.14	0.903
815.33	-0.061
815.51	-0.385
815.69	0.949
815.87	-0.592
816.06	-0.097
816.24	0.000
816.42	0.518
816.61	0.912
816.79	-0.017
816.97	-0.635
817.16	0.073
817.34	1.576
817.52	-0.551
817.70	-0.188
817.89	-0.520
818.07	0.556
818.25	0.092
818.44	0.272
818.62	0.232
818.80	-0.089
818.98	0.533
819.17	-0.036
819.35	0.167
819.53	0.092
819.72	-0.226
819.90	0.731
820.08	0.077
820.26	0.483
820.45	0.060
820.63	0.338
820.81	0.338
820.99	0.321
821.18	-0.020
821.36	0.959
821.54	0.212
821.73	-0.136
821.91	0.320
822.09	0.159
822.27	-0.499
822.46	0.719
822.64	0.790
822.82	0.186
823.00	0.191
823.19	0.918
823.37	-0.366
823.55	1.034
823.73	0.022
823.91	0.091
824.10	-0.804
824.28	0.117
824.46	0.463
824.64	0.881
824.83	0.442
825.01	-0.287
825.19	0.849
825.37	-0.578
825.56	0.676
825.74	-1.664
825.92	-0.090
826.10	-0.156
826.28	0.763
826.47	0.809
826.65	0.780
826.83	-0.486
827.01	0.937
827.19	0.890
827.38	-0.753
827.56	0.131
827.74	0.645
827.92	0.349
828.10	0.190
828.29	-1.404
828.47	0.969
828.65	-0.973
828.83	1.106
829.01	0.123
829.20	-0.127
829.38	-0.207
829.56	0.026
829.74	0.618
829.92	1.164
830.10	-0.235
830.29	-0.788
830.47	0.701
830.65	0.103
830.83	0.283
831.01	0.673
831.20	0.608
831.38	0.792
831.56	-1.079
831.74	0.051
831.92	0.644
832.10	1.260
832.29	-0.108
832.47	1.479
832.65	1.113
832.83	-0.793
833.01	0.584
833.19	1.392
833.37	0.540
833.56	0.784
833.74	-0.139
833.92	1.139
834.10	1.531
834.28	1.243
834.46	0.779
834.64	0.608
834.83	1.294
835.01	-0.192
835.19	0.691
835.37	-0.111
835.55	-0.935
835.73	1.421
835.91	0.055
836.09	-0.219
836.28	1.015
836.46	1.731
836.64	-0.483
836.82	0.336
837.00	0.084
837.18	0.632
837.36	1.004
837.54	0.237
837.72	0.599
837.91	-0.060
838.09	0.466
838.27	0.157
838.45	-0.222
838.63	0.682
838.81	0.000
838.99	-0.130
839.17	1.631
839.35	-0.263
839.53	0.102
839.72	0.242
839.90	1.271
840.08	0.976
840.26	1.456
840.44	-0.671
840.62	-0.099
840.80	0.962
840.98	-0.956
841.16	1.833
841.34	0.851
841.52	-0.506
841.70	0.933
841.89	0.820
842.07	-1.749
842.25	1.214
842.43	0.064
842.61	0.886
842.79	0.345
842.97	0.136
843.15	1.295
843.33	0.069
843.51	1.170
843.69	1.494
843.87	0.804
844.05	0.213
844.23	1.974
844.41	1.611
844.59	1.835
844.77	-0.830
844.95	1.467
845.13	1.190
845.31	0.112
845.50	0.681
845.68	0.234
845.86	-1.669
846.04	-1.567
846.22	0.219
846.40	1.805
846.58	0.477
846.76	1.231
846.94	1.675
847.12	0.424
847.30	0.186
847.48	0.641
847.66	0.998
847.84	0.189
848.02	0.334
848.20	1.391
848.38	0.979
848.56	-0.865
848.74	0.039
848.92	-1.392
849.10	1.609
849.28	0.937
849.46	-1.106
849.64	1.499
849.82	1.636
850.00	0.208
850.18	-1.906
850.36	-0.487
850.54	2.275
850.72	0.882
850.90	1.770
851.08	0.083
851.26	0.624
851.44	1.027
851.62	-0.407
851.80	1.069
851.98	1.043
852.16	1.794
852.34	0.130
852.52	1.027
852.70	0.580
852.87	-0.123
853.05	0.818
853.23	1.000
853.41	-1.236
853.59	1.321
853.77	-0.789
853.95	0.042
854.13	0.203
854.31	1.557
854.49	-1.214
854.67	-0.664
854.85	0.038
855.03	-0.227
855.21	-0.500
855.39	-0.501
855.57	1.161
855.75	1.031
855.93	0.749
856.11	-2.065
856.28	0.595
856.46	1.116
856.64	0.285
856.82	1.279
857.00	-0.248
857.18	0.119
857.36	-0.318
857.54	0.520
857.72	0.827
857.90	0.652
858.08	0.117
858.26	0.387
858.44	2.222
858.61	0.517
858.79	0.000
858.97	1.844
859.15	1.606
859.33	-0.077
859.51	0.725
859.69	0.225
859.87	1.813
860.05	1.100
860.23	2.013
860.40	3.526
860.58	0.365
860.76	3.532
860.94	0.750
861.12	0.544
861.30	2.479
861.48	1.577
861.66	1.284
861.84	1.763
862.01	2.913
862.19	2.809
862.37	0.776
862.55	0.730
862.73	0.917
862.91	2.685
863.09	2.579
863.27	1.810
863.44	1.365
863.62	1.467
863.80	1.503
863.98	2.853
864.16	1.005
864.34	0.854
864.52	0.073
864.69	1.738
864.87	1.890
865.05	0.371
865.23	1.840
865.41	0.892
865.59	4.544
865.76	1.030
865.94	0.983
866.12	1.534
866.30	2.212
866.48	0.953
866.66	2.914
866.83	1.785
867.01	1.873
867.19	1.432
867.37	1.653
867.55	2.696
867.73	0.104
867.90	-0.104
868.08	2.069
868.26	2.526
868.44	0.921
868.62	2.660
868.79	1.184
868.97	2.555
869.15	2.435
869.33	3.885
869.51	2.937
869.69	4.208
869.86	2.482
870.04	3.247
870.22	3.757
870.40	4.478
870.57	4.223
870.75	5.360
870.93	5.589
871.11	7.062
871.29	8.264
871.46	6.986
871.64	9.914
871.82	8.674
872.00	9.216
872.18	10.700
872.35	11.349
872.53	11.758
872.71	12.666
872.89	11.692
873.06	14.389
873.24	13.114
873.42	15.332
873.60	15.479
873.77	15.235
873.95	14.206
874.13	14.619
874.31	15.595
874.49	14.339
874.66	15.008
874.84	16.115
875.02	16.329
875.20	15.589
875.37	15.214
875.55	16.553
875.73	15.961
875.91	16.667
876.08	16.690
876.26	16.778
876.44	18.111
876.61	15.446
876.79	16.637
876.97	16.748
877.15	16.851
877.32	18.396
877.50	16.951
877.68	17.703
877.86	19.132
878.03	18.334
878.21	20.878
878.39	20.407
878.56	22.462
878.74	23.495
878.92	24.181
879.10	24.941
879.27	27.019
879.45	26.735
879.63	30.621
879.80	32.343
879.98	34.894
880.16	36.456
880.34	38.132
880.51	39.451
880.69	40.137
880.87	41.521
881.04	41.678
881.22	44.572
881.40	43.978
881.57	46.400
881.75	50.036
881.93	51.866
882.10	50.335
882.28	50.199
882.46	49.503
882.63	50.632
882.81	47.814
882.99	50.987
883.16	48.966
883.34	46.822
883.52	45.376
883.69	43.870
883.87	40.671
884.05	39.256
884.22	39.521
884.40	37.249
884.58	34.287
884.75	32.961
884.93	29.065
885.11	29.814
885.28	26.631
885.46	27.902
885.64	24.751
885.81	24.249
885.99	23.485
886.17	22.354
886.34	19.476
886.52	18.852
886.70	19.379
886.87	18.954
887.05	17.326
887.22	17.315
887.40	16.082
887.58	17.297
887.75	17.066
887.93	17.284
888.11	18.230
888.28	18.268
888.46	17.916
888.63	19.099
888.81	21.054
888.99	20.254
889.16	21.923
889.34	25.497
889.51	25.008
889.69	27.717
889.87	27.087
890.04	29.185
890.22	28.959
890.39	31.240
890.57	29.791
890.75	33.012
890.92	35.068
891.10	33.412
891.27	36.520
891.45	36.265
891.63	37.083
891.80	39.278
891.98	35.801
892.15	36.784
892.33	37.743
892.51	36.335
892.68	35.702
892.86	35.418
893.03	33.099
893.21	31.404
893.38	31.956
893.56	29.468
893.74	30.419
893.91	30.566
894.09	24.878
894.26	23.056
894.44	22.275
894.61	21.584
894.79	19.462
894.96	18.152
895.14	17.643
895.32	15.797
895.49	15.648
895.67	13.349
895.84	12.833
896.02	13.553
896.19	11.051
896.37	11.592
896.54	11.386
896.72	10.681
896.89	9.444
897.07	9.892
897.25	8.519
897.42	7.225
897.60	9.503
897.77	7.884
897.95	6.585
898.12	8.377
898.30	6.643
898.47	9.291
898.65	8.612
898.82	7.963
899.00	8.598
899.17	6.967
899.35	7.383
899.52	8.115
899.70	8.328
899.87	6.073
900.05	7.826
900.22	9.249
900.40	6.095
900.57	7.862
900.75	10.230
900.92	8.034
901.10	9.697
901.27	9.213
901.45	9.887
901.62	9.832
901.80	9.489
901.97	11.435
902.15	10.558
902.32	11.124
902.50	12.591
902.67	12.232
902.85	14.808
903.02	13.826
903.20	15.479
903.37	17.896
903.54	16.634
903.72	16.536
903.89	17.471
904.07	19.074
904.24	21.030
904.42	21.760
904.59	22.090
904.77	22.328
904.94	23.114
905.12	22.937
905.29	23.797
905.47	25.046
905.64	24.464
905.81	26.322
905.99	29.188
906.16	29.361
906.34	29.791
906.51	29.081
906.69	33.148
906.86	31.207
907.03	31.545
907.21	31.103
907.38	29.108
907.56	27.638
907.73	28.308
907.91	29.352
908.08	27.910
908.25	28.110
908.43	24.958
908.60	24.871
908.78	25.512
908.95	23.877
909.13	24.005
909.30	21.965
909.47	20.960
909.65	21.329
909.82	16.370
910.00	20.180
910.17	19.708
910.34	18.515
910.52	16.507
910.69	17.261
910.87	18.107
911.04	19.581
911.21	15.575
911.39	14.751
911.56	15.066
911.73	12.224
911.91	15.690
912.08	14.209
912.26	11.596
912.43	15.334
912.60	15.169
912.78	15.326
912.95	15.063
913.13	15.083
913.30	13.615
913.47	18.735
913.65	17.261
913.82	16.848
913.99	17.354
914.17	18.443
914.34	16.855
914.51	17.245
914.69	17.741
914.86	17.875
915.03	19.236
915.21	17.635
915.38	22.516
915.56	22.452
915.73	24.647
915.90	24.134
916.08	25.040
916.25	24.894
916.42	25.624
916.60	25.276
916.77	29.195
916.94	31.915
917.12	27.612
917.29	30.464
917.46	34.980
917.64	34.567
917.81	36.620
917.98	38.687
918.16	40.042
918.33	41.321
918.50	42.850
918.67	40.268
918.85	48.690
919.02	49.211
919.19	53.838
919.37	56.324
919.54	59.129
919.71	55.718
919.89	63.580
920.06	64.025
920.23	65.038
920.41	66.721
920.58	68.066
920.75	74.613
920.92	70.045
921.10	71.667
921.27	71.313
921.44	71.042
921.62	79.022
921.79	74.216
921.96	78.784
922.13	74.013
922.31	68.543
922.48	72.981
922.65	70.787
922.82	65.984
923.00	64.442
923.17	66.918
923.34	66.389
923.52	68.950
923.69	68.762
923.86	65.916
924.03	64.737
924.21	63.479
924.38	62.389
924.55	62.661
924.72	60.898
924.90	61.921
925.07	65.284
925.24	61.598
925.41	65.592
925.59	61.103
925.76	58.702
925.93	60.882
926.10	60.175
926.28	54.799
926.45	57.887
926.62	52.989
926.79	56.349
926.96	50.843
927.14	52.709
927.31	54.363
927.48	56.723
927.65	55.747
927.83	57.816
928.00	53.579
928.17	59.554
928.34	55.832
928.51	60.309
928.69	63.668
928.86	60.230
929.03	61.204
929.20	62.787
929.37	62.092
929.55	68.683
929.72	71.068
929.89	70.644
930.06	73.532
930.23	69.953
930.41	74.615
930.58	79.352
930.75	79.700
930.92	77.032
931.09	74.612
931.27	78.947
931.44	80.862
931.61	78.541
931.78	77.320
931.95	79.354
932.12	76.775
932.30	76.903
932.47	74.238
932.64	82.699
932.81	76.970
932.98	83.646
933.16	77.071
933.33	76.241
933.50	76.916
933.67	75.819
933.84	75.859
934.01	68.250
934.18	67.058
934.36	75.760
934.53	66.237
934.70	70.760
934.87	65.213
935.04	65.847
935.21	65.658
935.38	60.784
935.56	62.192
935.73	63.682
935.90	67.935
936.07	58.878
936.24	64.650
936.41	62.308
936.58	59.372
936.76	62.948
936.93	69.595
937.10	69.710
937.27	61.700
937.44	60.455
937.61	63.983
937.78	66.471
937.95	62.690
938.13	61.936
938.30	66.154
938.47	54.192
938.64	64.157
938.81	57.906
938.98	60.612
939.15	55.778
939.32	59.636
939.49	60.430
939.66	56.941
939.84	66.833
940.01	62.782
940.18	64.895
940.35	56.015
940.52	58.810
940.69	58.939
940.86	63.556
941.03	61.621
941.20	54.846
941.37	57.988
941.54	76.758
941.71	64.598
941.89	65.389
942.06	64.890
942.23	66.007
942.40	62.874
942.57	69.288
942.74	76.073
942.91	70.394
943.08	81.853
943.25	79.571
943.42	80.478
943.59	78.506
943.76	75.304
943.93	85.130
944.10	73.942
944.27	76.810
944.44	73.643
944.61	77.579
944.79	71.127
944.96	78.603
945.13	74.185
945.30	76.152
945.47	72.192
945.64	78.393
945.81	69.252
945.98	73.655
946.15	74.397
946.32	70.932
946.49	78.325
946.66	78.802
946.83	72.665
947.00	70.973
947.17	72.821
947.34	63.173
947.51	70.597
947.68	63.565
947.85	72.823
948.02	69.821
948.19	69.157
948.36	72.758
948.53	69.550
948.70	71.864
948.87	65.517
949.04	63.205
949.21	61.881
949.38	62.415
949.55	56.217
949.72	58.484
949.89	46.875
950.06	56.085
950.23	62.626
950.40	47.595
950.57	51.892
950.74	56.890
950.91	54.779
951.08	53.659
951.25	52.662
951.42	58.412
951.59	56.058
951.76	53.939
951.93	48.561
952.10	46.377
952.27	46.491
952.44	51.020
952.61	58.925
952.77	44.213
952.94	55.285
953.11	54.667
953.28	50.377
953.45	50.813
953.62	40.290
953.79	62.222
953.96	44.727
954.13	46.552
954.30	58.871
954.47	54.867
954.64	60.192
954.81	54.125
954.98	45.120
955.15	49.600
955.32	55.888
955.49	60.470
955.65	65.800
955.82	67.617
955.99	62.923
956.16	61.144
956.33	65.209
956.50	65.564
956.67	62.575
956.84	55.243
957.01	64.155
957.18	67.992
957.35	55.847
957.52	60.843
957.68	73.884
957.85	57.660
958.02	67.168
958.19	74.146
958.36	77.251
958.53	75.260
958.70	68.522
958.87	68.680
959.04	68.462
959.21	58.150
959.37	79.481
959.54	67.126
959.71	63.507
959.88	69.197
960.05	63.183
960.22	62.864
960.39	54.106
960.56	52.193
960.72	57.173
960.89	46.285
961.06	54.583
961.23	49.887
961.40	44.928
961.57	47.917
961.74	35.375
961.90	40.808
962.07	33.333
962.24	37.072
962.41	40.177
962.58	35.684
962.75	32.636
962.92	45.098
963.08	22.022
963.25	37.744
963.42	31.415
963.59	34.534
963.76	34.537
963.93	22.477
964.10	42.326
964.26	39.749
964.43	26.328
964.60	37.412
964.77	35.880
964.94	28.066
965.10	34.298
965.27	25.400
965.44	37.130
965.61	29.620
965.78	23.409
965.95	27.446
966.11	34.562
966.28	27.147
966.45	7.459
966.62	28.125
966.79	10.847
966.95	34.615
967.12	27.703
967.29	29.478
967.46	35.068
967.63	21.702
967.79	27.766
967.96	25.664
968.13	30.214
968.30	29.134
968.47	25.208
968.63	29.424
968.80	23.848
968.97	30.296
969.14	38.416
969.31	29.060
969.47	32.443
969.64	27.455
969.81	22.199
969.98	20.588
970.14	37.310
970.31	30.652
970.48	37.277
970.65	44.000
970.81	36.979
970.98	27.195
971.15	31.027
971.32	36.000
971.48	30.769
971.65	46.631
971.82	32.506
971.99	44.180
972.15	45.606
972.32	31.455
972.49	35.394
972.66	34.152
972.82	38.600
972.99	46.824
973.16	34.402
973.33	44.313
973.49	42.821
973.66	38.889
973.83	59.184
974.00	49.550
974.16	60.227
974.33	66.760
974.50	69.324
974.67	52.593
974.83	66.828
975.00	55.502
975.17	50.115
975.33	60.514
975.50	68.548
975.67	66.129
975.84	51.709
976.00	69.882
976.17	58.588
976.34	68.342
976.50	69.337
976.67	58.486
976.84	55.612
977.00	71.868
977.17	75.493
977.34	54.785
977.50	62.735
977.67	58.676
977.84	64.183
978.01	71.728
978.17	72.796
978.34	59.801
978.51	61.501
978.67	69.266
978.84	58.621
979.01	59.906
979.17	69.474
979.34	54.922
979.51	64.000
979.67	65.777
979.84	68.646
980.01	55.809
980.17	72.126
980.34	65.885
980.51	67.898
980.67	77.403
980.84	60.825
981.01	54.545
981.17	58.824
981.34	49.895
981.50	56.731
981.67	69.727
981.84	60.391
982.00	52.577
982.17	55.471
982.34	62.150
982.50	67.276
982.67	64.858
982.84	68.925
983.00	64.491
983.17	66.972
983.33	65.111
983.50	52.915
983.67	53.965
983.83	53.452
984.00	56.250
984.17	60.086
984.33	64.500
984.50	56.871
984.66	61.082
984.83	54.701
985.00	66.000
985.16	65.063
985.33	58.636
985.49	62.420
985.66	54.897
985.83	65.369
985.99	62.940
986.16	58.317
986.32	63.855
986.49	70.136
986.66	76.082
986.82	62.664
986.99	63.403
987.15	71.963
987.32	64.623
987.49	70.362
987.65	73.427
987.82	77.835
987.98	78.638
988.15	71.501
988.31	75.650
988.48	79.621
988.65	86.508
988.81	85.235
988.98	72.584
989.14	88.863
989.31	70.949
989.47	81.250
989.64	73.423
989.80	79.577
989.97	73.593
990.14	78.723
990.30	73.558
990.47	76.942
990.63	72.854
990.80	70.928
990.96	71.198
991.13	78.348
991.29	81.948
991.46	83.610
991.62	74.884
991.79	64.718
991.95	74.041
992.12	74.150
992.29	60.163
992.45	68.578
992.62	50.000
992.78	63.103
992.95	74.641
993.11	55.705
993.28	60.636
993.44	60.613
993.61	56.224
993.77	63.874
993.94	50.572
994.10	62.447
994.27	63.081
994.43	57.806
994.60	49.250
994.76	63.741
994.93	51.025
995.09	59.569
995.26	58.252
995.42	46.959
995.59	51.451
995.75	40.741
995.92	55.059
996.08	41.647
996.25	52.593
996.41	46.078
996.58	58.676
996.74	47.346
996.91	44.648
997.07	44.634
997.23	39.216
997.40	35.982
997.56	43.458
997.73	37.000
997.89	34.452
998.06	38.546
998.22	41.769
998.39	49.160
998.55	47.344
998.72	38.318
998.88	46.000
999.05	55.504
999.21	52.983
999.37	59.043
999.54	33.838
999.70	47.921
999.87	41.457
1000.03	60.274
1000.20	49.279
1000.36	53.237
1000.52	47.280
1000.69	51.515
1000.85	37.797
1001.02	46.575
1001.18	45.889
1001.35	51.592
1001.51	36.303
1001.67	45.434
1001.84	50.211
1002.00	44.958
1002.17	57.339
1002.33	52.927
1002.50	59.142
1002.66	58.057
1002.82	63.317
1002.99	55.467
1003.15	63.659
1003.32	66.165
1003.48	59.091
1003.64	56.743
1003.81	64.607
1003.97	59.589
1004.14	69.194
1004.30	63.636
1004.46	84.334
1004.63	49.567
1004.79	63.684
1004.95	63.239
1005.12	62.088
1005.28	68.848
1005.45	51.382
1005.61	66.504
1005.77	59.360
1005.94	58.296
1006.10	60.202
1006.26	63.549
1006.43	60.190
1006.59	55.899
1006.76	51.187
1006.92	52.941
1007.08	55.981
1007.25	49.448
1007.41	45.324
1007.57	47.304
1007.74	42.821
1007.90	49.227
1008.06	57.031
1008.23	54.872
1008.39	47.071
1008.55	37.097
1008.72	37.905
1008.88	47.333
1009.04	48.380
1009.21	44.153
1009.37	45.789
1009.53	33.813
1009.70	45.699
1009.86	35.450
1010.02	30.524
1010.19	39.714
1010.35	23.009
1010.51	40.573
1010.68	28.030
1010.84	30.446
1011.00	33.846
1011.17	39.058
1011.33	26.161
1011.49	31.638
1011.66	31.026
1011.82	30.435
1011.98	37.462
1012.14	14.795
1012.31	24.779
1012.47	21.483
1012.63	24.713
1012.80	16.667
1012.96	18.717
1013.12	25.278
1013.29	27.701
1013.45	35.248
1013.61	23.773
1013.77	30.233
1013.94	18.016
1014.10	25.152
1014.26	36.139
1014.43	20.330
1014.59	19.837
1014.75	20.725
1014.91	26.545
1015.08	16.465
1015.24	16.860
1015.40	26.500
1015.56	1.842
1015.73	29.630
1015.89	31.989
1016.05	24.645
1016.21	21.337
1016.38	13.673
1016.54	9.357
1016.70	11.176
1016.86	29.023
1017.03	12.807
1017.19	15.212
1017.35	17.925
1017.51	16.986
1017.68	12.987
1017.84	25.882
1018.00	30.287
1018.16	31.389
1018.33	20.506
1018.49	23.492
1018.65	12.807
1018.81	25.994
1018.97	10.198
1019.14	21.798
1019.30	26.629
1019.46	27.835
1019.62	23.828
1019.79	30.721
1019.95	32.648
1020.11	23.053
1020.27	21.639
1020.43	19.298
1020.60	24.242
1020.76	26.966
1020.92	33.333
1021.08	10.197
1021.24	36.335
1021.41	23.333
1021.57	31.322
1021.73	32.787
1021.89	23.684
1022.05	23.693
1022.21	34.444
1022.38	26.000
1022.54	32.092
1022.70	26.000
1022.86	32.277
1023.02	35.072
1023.19	32.566
1023.35	34.084
1023.51	25.321
1023.67	35.465
1023.83	28.244
1023.99	30.634
1024.16	32.540
1024.32	35.599
1024.48	36.879
1024.64	30.132
1024.80	35.816
1024.96	32.407
1025.12	27.586
1025.29	36.749
1025.45	30.000
1025.61	30.323
1025.77	23.105
1025.93	49.379
1026.09	25.483
1026.26	50.338
1026.42	42.213
1026.58	40.138
1026.74	39.608
1026.90	33.233
1027.06	31.353
1027.22	39.262
1027.38	38.298
1027.55	43.204
1027.71	39.535
1027.87	30.847
1028.03	35.857
1028.19	40.000
1028.35	29.889
1028.51	41.883
1028.67	18.631
1028.83	24.242
1029.00	25.517
1029.16	43.438
1029.32	33.459
1029.48	30.469
1029.64	45.246
1029.80	39.024
1029.96	52.910
1030.12	42.491
1030.28	41.404
1030.44	51.190
1030.61	35.443
1030.77	32.787
1030.93	24.206
1031.09	25.098
1031.25	25.381
1031.41	38.554
1031.57	19.409
1031.73	20.000
1031.89	45.936
1032.05	44.944
1032.21	26.122
1032.37	33.094
1032.53	52.060
1032.69	41.202
1032.86	28.365
1033.02	32.890
1033.18	30.769
1033.34	18.638
1033.50	40.415
1033.66	42.264
1033.82	50.916
1033.98	14.655
1034.14	34.101
1034.30	38.550
1034.46	28.195
1034.62	35.294
1034.78	38.603
1034.94	27.076
1035.10	26.699
1035.26	40.206
1035.42	49.338
1035.58	26.715
1035.74	56.432
1035.90	36.098
1036.06	38.577
1036.22	16.412
1036.38	43.612
1036.54	40.574
1036.70	51.667
1036.86	34.021
1037.02	46.886
1037.18	30.952
1037.34	13.492
1037.50	48.058
1037.66	34.737
1037.82	53.819
1037.98	49.104
1038.14	51.934
1038.30	25.000
1038.46	43.525
1038.62	40.845
1038.78	52.885
1038.94	55.172
1039.10	61.722
1039.26	74.138
1039.42	54.128
1039.58	46.746
1039.74	56.904
1039.90	34.500
1040.06	61.463
>>>>>End Processed Spectral Data<<<<<
