SpectraSuite Data File
++++++++++++++++++++++++++++++++++++
Date: Wed Jan 25 18:45:04 EET 2017
User: TheoProf
Dark Spectrum Present: Yes
Reference Spectrum Present: Yes
Number of Sampled Component Spectra: 1
Spectrometers: USB4C02475
Integration Time (usec): 64136 (USB4C02475)
Spectra Averaged: 1 (USB4C02475)
Boxcar Smoothing: 0 (USB4C02475)
Correct for Electrical Dark: No (USB4C02475)
Strobe/Lamp Enabled: No (USB4C02475)
Correct for Detector Non-linearity: No (USB4C02475)
Correct for Stray Light: No (USB4C02475)
Number of Pixels in Processed Spectrum: 3648
>>>>>Begin Processed Spectral Data<<<<<
344.91	275.000
345.13	275.000
345.35	275.000
345.57	142.857
345.79	-0.000
346.00	68.421
346.22	0.000
346.44	37.931
346.66	-320.000
346.87	117.241
347.09	20.000
347.31	91.304
347.53	3.922
347.74	-81.579
347.96	150.000
348.18	116.667
348.40	131.579
348.61	61.538
348.83	45.455
349.05	119.672
349.27	108.333
349.48	264.706
349.70	94.118
349.92	32.258
350.14	109.836
350.35	-81.481
350.57	60.417
350.79	70.588
351.01	66.154
351.22	-130.000
351.44	50.000
351.66	-100.000
351.87	122.222
352.09	0.000
352.31	91.429
352.53	68.333
352.74	20.690
352.96	58.000
353.18	19.512
353.40	1950.000
353.61	-14.286
353.83	409.091
354.05	220.000
354.26	66.667
354.48	104.762
354.70	31.579
354.92	46.154
355.13	-65.517
355.35	-16.981
355.57	84.314
355.78	109.677
356.00	116.667
356.22	58.904
356.44	39.063
356.65	48.077
356.87	-19.231
357.09	10.000
357.30	28.571
357.52	683.333
357.74	12.727
357.95	79.167
358.17	75.000
358.39	102.326
358.60	-6.250
358.82	223.077
359.04	-200.000
359.26	-19.608
359.47	8.333
359.69	55.446
359.91	-115.000
360.12	-60.000
360.34	100.000
360.56	108.333
360.77	-23.077
360.99	31.034
361.21	44.643
361.42	23.404
361.64	-212.500
361.86	-162.500
362.07	75.610
362.29	-11.364
362.51	35.714
362.72	184.615
362.94	32.308
363.16	29.545
363.37	17.187
363.59	72.000
363.81	56.250
364.02	195.918
364.24	-184.615
364.46	46.154
364.67	600.000
364.89	78.788
365.11	-1.852
365.32	282.143
365.54	26.316
365.76	41.379
365.97	18.182
366.19	27.273
366.41	-14.286
366.62	131.429
366.84	242.857
367.05	3.636
367.27	15.152
367.49	67.742
367.70	108.571
367.92	-23.684
368.14	-9.524
368.35	-26.471
368.57	45.570
368.79	32.075
369.00	77.551
369.22	80.000
369.43	104.688
369.65	70.000
369.87	148.571
370.08	-50.000
370.30	-720.000
370.51	-240.000
370.73	48.485
370.95	57.692
371.16	57.407
371.38	-12.500
371.60	-100.000
371.81	-86.842
372.03	55.072
372.24	-125.000
372.46	-82.759
372.68	37.500
372.89	26.316
373.11	-1.695
373.32	133.333
373.54	39.474
373.76	116.327
373.97	10.811
374.19	-51.282
374.40	15.517
374.62	-37.500
374.84	94.000
375.05	37.037
375.27	-28.000
375.48	-111.765
375.70	137.931
375.92	42.308
376.13	-110.000
376.35	42.857
376.56	-214.286
376.78	134.091
376.99	58.462
377.21	-55.814
377.43	80.769
377.64	-10.390
377.86	28.571
378.07	640.000
378.29	-20.455
378.51	8.642
378.72	9.589
378.94	38.571
379.15	75.439
379.37	-44.000
379.58	-231.250
379.80	72.917
380.01	-50.000
380.23	28.889
380.45	5.263
380.66	2.899
380.88	-13.636
381.09	14.063
381.31	18.750
381.52	30.435
381.74	86.316
381.95	-470.000
382.17	-4.545
382.39	50.000
382.60	35.714
382.82	108.000
383.03	93.750
383.25	20.000
383.46	-168.421
383.68	-18.182
383.89	45.714
384.11	94.915
384.32	97.674
384.54	66.667
384.76	15.217
384.97	31.373
385.19	62.500
385.40	56.452
385.62	-12.069
385.83	46.032
386.05	-1.667
386.26	55.556
386.48	14.754
386.69	23.457
386.91	0.000
387.12	21.538
387.34	-82.692
387.55	-105.556
387.77	63.014
387.98	2.941
388.20	-5.263
388.41	-142.857
388.63	22.000
388.84	70.588
389.06	27.273
389.27	25.743
389.49	95.385
389.70	52.941
389.92	8.929
390.13	70.408
390.35	52.941
390.56	54.902
390.78	1.136
390.99	61.972
391.21	5.882
391.42	20.988
391.64	32.500
391.85	76.389
392.07	-1037.500
392.28	18.033
392.50	38.889
392.71	-58.065
392.93	25.862
393.14	34.906
393.36	12.264
393.57	17.204
393.79	-4700.000
394.00	-11.765
394.22	-61.111
394.43	17.204
394.65	-37.097
394.86	1.923
395.08	20.253
395.29	38.824
395.50	-9.756
395.72	-16.129
395.93	36.842
396.15	28.226
396.36	33.333
396.58	13.043
396.79	-8.108
397.01	62.500
397.22	-14.925
397.44	22.689
397.65	35.833
397.87	18.919
398.08	6.838
398.29	36.765
398.51	69.333
398.72	-12.121
398.94	13.158
399.15	20.792
399.37	32.090
399.58	22.340
399.80	8.824
400.01	4.762
400.22	11.111
400.44	-3.333
400.65	-2.941
400.87	12.931
401.08	18.182
401.30	13.889
401.51	25.806
401.72	19.355
401.94	36.207
402.15	-22.414
402.37	-11.321
402.58	-40.278
402.80	16.438
403.01	-23.457
403.22	60.000
403.44	46.212
403.65	41.912
403.87	12.143
404.08	24.359
404.30	-21.538
404.51	31.356
404.72	9.220
404.94	11.450
405.15	13.514
405.37	15.748
405.58	-14.286
405.79	-22.105
406.01	16.993
406.22	3.200
406.44	29.078
406.65	21.875
406.86	44.371
407.08	38.889
407.29	21.053
407.51	38.462
407.72	9.722
407.93	32.895
408.15	17.791
408.36	5.109
408.58	20.541
408.79	14.789
409.00	0.000
409.22	10.929
409.43	29.078
409.64	-11.719
409.86	-0.617
410.07	3.165
410.29	-1.869
410.50	-37.288
410.71	-4.575
410.93	17.647
411.14	-3.681
411.35	23.529
411.57	-19.277
411.78	-0.592
412.00	-1.399
412.21	-21.233
412.42	18.563
412.64	6.061
412.85	30.994
413.06	10.092
413.28	-14.667
413.49	19.807
413.70	-3.390
413.92	1.379
414.13	17.857
414.34	29.319
414.56	9.202
414.77	34.118
414.98	-1.047
415.20	-2.890
415.41	6.667
415.63	-4.825
415.84	3.431
416.05	30.435
416.27	-11.364
416.48	18.033
416.69	7.658
416.91	10.628
417.12	20.833
417.33	10.549
417.55	-5.233
417.76	-2.874
417.97	14.634
418.19	19.565
418.40	5.495
418.61	11.345
418.83	0.905
419.04	18.018
419.25	16.803
419.46	3.057
419.68	16.667
419.89	-1.604
420.10	4.603
420.32	9.562
420.53	3.213
420.74	18.846
420.96	19.920
421.17	16.996
421.38	1.916
421.60	3.333
421.81	0.417
422.02	10.345
422.23	4.564
422.45	15.185
422.66	12.083
422.87	0.000
423.09	-20.705
423.30	-0.463
423.51	19.557
423.73	19.048
423.94	0.692
424.15	-0.772
424.36	16.563
424.58	9.343
424.79	3.630
425.00	8.099
425.22	10.000
425.43	11.957
425.64	13.636
425.85	-2.024
426.07	-5.363
426.28	4.452
426.49	-8.487
426.71	0.292
426.92	6.509
427.13	-4.950
427.34	7.576
427.56	1.786
427.77	-14.453
427.98	-16.532
428.19	4.633
428.41	-8.191
428.62	0.342
428.83	5.292
429.04	4.969
429.26	9.440
429.47	5.846
429.68	-3.692
429.89	3.869
430.11	2.344
430.32	0.792
430.53	5.714
430.74	11.491
430.96	7.592
431.17	7.692
431.38	-10.968
431.59	1.529
431.81	0.000
432.02	-0.562
432.23	6.591
432.44	-1.538
432.66	3.352
432.87	-2.432
433.08	-0.694
433.29	-0.254
433.51	13.971
433.72	7.260
433.93	-1.632
434.14	7.512
434.35	2.421
434.57	3.354
434.78	0.482
434.99	14.655
435.20	12.039
435.42	10.041
435.63	13.100
435.84	12.842
436.05	19.400
436.26	0.965
436.48	6.168
436.69	1.702
436.90	5.950
437.11	15.456
437.32	1.044
437.54	3.950
437.75	13.917
437.96	3.393
438.17	5.728
438.38	15.462
438.60	0.560
438.81	9.036
439.02	8.696
439.23	7.963
439.44	5.273
439.66	8.929
439.87	4.651
440.08	2.686
440.29	7.558
440.50	7.184
440.72	6.270
440.93	1.426
441.14	7.266
441.35	0.581
441.56	3.030
441.77	11.658
441.99	7.297
442.20	10.932
442.41	8.587
442.62	2.931
442.83	6.757
443.04	10.638
443.26	6.220
443.47	6.466
443.68	10.438
443.89	-4.972
444.10	5.197
444.31	-0.181
444.53	14.691
444.74	6.962
444.95	1.447
445.16	3.691
445.37	2.265
445.58	9.355
445.80	7.431
446.01	11.632
446.22	9.231
446.43	16.718
446.64	6.738
446.85	17.710
447.06	13.371
447.28	22.515
447.49	30.975
447.70	35.780
447.91	33.032
448.12	34.800
448.33	34.207
448.54	36.785
448.76	45.377
448.97	44.006
449.18	50.242
449.39	48.851
449.60	58.006
449.81	66.071
450.02	59.379
450.23	67.318
450.45	63.684
450.66	67.421
450.87	68.293
451.08	72.896
451.29	77.469
451.50	74.308
451.71	77.647
451.92	75.245
452.13	79.229
452.35	67.866
452.56	79.900
452.77	86.323
452.98	90.548
453.19	88.506
453.40	80.577
453.61	85.369
453.82	84.974
454.03	84.417
454.25	86.710
454.46	90.387
454.67	88.876
454.88	71.753
455.09	76.404
455.30	82.746
455.51	81.528
455.72	79.412
455.93	92.338
456.14	84.284
456.35	80.851
456.56	86.386
456.78	87.055
456.99	86.567
457.20	80.952
457.41	81.562
457.62	73.142
457.83	81.429
458.04	78.184
458.25	80.829
458.46	80.967
458.67	74.391
458.88	84.558
459.09	79.737
459.30	85.778
459.51	78.473
459.73	88.191
459.94	75.731
460.15	90.286
460.36	82.529
460.57	79.298
460.78	81.421
460.99	80.262
461.20	75.491
461.41	82.152
461.62	79.125
461.83	80.903
462.04	82.691
462.25	80.212
462.46	86.727
462.67	86.968
462.88	84.142
463.09	88.790
463.30	86.050
463.51	91.372
463.72	84.923
463.93	86.576
464.15	78.559
464.36	81.102
464.57	87.390
464.78	79.662
464.99	77.019
465.20	81.905
465.41	88.226
465.62	83.082
465.83	85.980
466.04	93.622
466.25	95.275
466.46	93.759
466.67	91.642
466.88	87.664
467.09	86.840
467.30	83.787
467.51	80.660
467.72	85.744
467.93	84.315
468.14	80.563
468.35	76.938
468.56	83.701
468.77	85.055
468.98	85.147
469.19	86.751
469.40	87.281
469.61	88.202
469.82	85.688
470.03	79.693
470.24	83.083
470.45	79.989
470.66	85.255
470.87	84.273
471.08	91.993
471.29	93.839
471.50	87.486
471.71	88.920
471.92	87.147
472.13	87.521
472.34	89.047
472.55	81.706
472.76	84.546
472.97	82.203
473.18	85.024
473.39	82.096
473.60	83.133
473.81	80.991
474.01	85.778
474.22	82.432
474.43	83.769
474.64	87.859
474.85	81.354
475.06	84.464
475.27	85.741
475.48	81.157
475.69	81.785
475.90	83.318
476.11	85.166
476.32	87.772
476.53	86.067
476.74	87.068
476.95	84.929
477.16	84.109
477.37	90.502
477.58	86.178
477.79	85.769
478.00	85.120
478.21	84.108
478.41	85.777
478.62	84.770
478.83	88.666
479.04	89.578
479.25	86.838
479.46	86.525
479.67	88.104
479.88	86.410
480.09	91.461
480.30	88.378
480.51	88.164
480.72	88.525
480.93	86.559
481.14	85.971
481.34	82.989
481.55	85.342
481.76	85.222
481.97	87.005
482.18	87.090
482.39	86.345
482.60	84.281
482.81	89.286
483.02	89.642
483.23	84.967
483.44	86.268
483.65	88.047
483.85	90.140
484.06	90.267
484.27	92.164
484.48	92.404
484.69	91.165
484.90	95.790
485.11	91.186
485.32	92.997
485.53	94.434
485.73	91.823
485.94	88.454
486.15	86.024
486.36	88.526
486.57	84.666
486.78	87.915
486.99	87.449
487.20	83.476
487.41	84.385
487.61	88.081
487.82	92.748
488.03	87.887
488.24	87.405
488.45	87.626
488.66	87.003
488.87	82.022
489.08	85.372
489.28	85.207
489.49	83.187
489.70	80.972
489.91	81.269
490.12	80.729
490.33	83.341
490.54	87.552
490.74	88.203
490.95	89.422
491.16	86.384
491.37	88.407
491.58	87.545
491.79	88.270
492.00	85.937
492.20	88.373
492.41	85.798
492.62	85.882
492.83	84.949
493.04	85.890
493.25	84.504
493.45	87.464
493.66	85.868
493.87	83.348
494.08	78.234
494.29	81.060
494.50	80.883
494.70	80.847
494.91	83.296
495.12	82.932
495.33	81.454
495.54	80.875
495.75	78.017
495.95	77.969
496.16	74.347
496.37	67.645
496.58	61.552
496.79	54.938
496.99	49.484
497.20	45.736
497.41	40.824
497.62	34.483
497.83	28.468
498.04	23.388
498.24	20.261
498.45	15.048
498.66	11.646
498.87	10.138
499.08	7.352
499.28	6.795
499.49	4.163
499.70	3.339
499.91	1.366
500.12	2.054
500.32	0.959
500.53	1.674
500.74	1.316
500.95	1.634
501.15	0.982
501.36	1.941
501.57	1.303
501.78	0.800
501.99	2.325
502.19	1.037
502.40	0.938
502.61	1.522
502.82	1.081
503.02	0.868
503.23	1.045
503.44	1.288
503.65	1.206
503.86	1.527
504.06	1.509
504.27	1.083
504.48	1.481
504.69	-0.220
504.89	1.144
505.10	2.049
505.31	1.034
505.52	1.634
505.72	1.491
505.93	2.085
506.14	0.648
506.35	0.679
506.55	1.532
506.76	1.362
506.97	2.033
507.18	0.158
507.38	1.785
507.59	0.871
507.80	0.999
508.01	1.454
508.21	0.033
508.42	0.894
508.63	0.861
508.84	1.211
509.04	1.063
509.25	0.887
509.46	1.346
509.67	0.955
509.87	0.800
510.08	1.067
510.29	0.814
510.49	0.626
510.70	0.818
510.91	0.887
511.12	0.172
511.32	0.593
511.53	1.195
511.74	1.254
511.94	1.316
512.15	0.273
512.36	1.103
512.57	0.708
512.77	-0.286
512.98	0.505
513.19	0.380
513.39	0.321
513.60	0.613
513.81	0.349
514.01	0.233
514.22	1.489
514.43	1.016
514.64	1.183
514.84	0.650
515.05	0.336
515.26	0.919
515.46	0.813
515.67	0.590
515.88	0.466
516.08	0.442
516.29	0.416
516.50	1.421
516.70	1.035
516.91	1.672
517.12	0.345
517.32	0.898
517.53	1.349
517.74	0.367
517.95	0.529
518.15	0.788
518.36	0.506
518.57	0.569
518.77	0.482
518.98	1.115
519.19	-0.300
519.39	0.256
519.60	0.790
519.80	1.217
520.01	0.556
520.22	0.975
520.42	1.131
520.63	0.813
520.84	0.811
521.04	0.320
521.25	0.501
521.46	0.303
521.66	0.689
521.87	0.490
522.08	0.928
522.28	0.768
522.49	0.707
522.70	0.550
522.90	0.673
523.11	0.344
523.31	0.663
523.52	1.063
523.73	0.766
523.93	0.993
524.14	0.380
524.35	0.745
524.55	0.934
524.76	0.248
524.97	1.253
525.17	0.516
525.38	0.612
525.58	0.862
525.79	0.951
526.00	1.063
526.20	0.732
526.41	0.250
526.61	0.645
526.82	1.038
527.03	0.612
527.23	1.145
527.44	0.793
527.64	1.002
527.85	0.566
528.06	0.887
528.26	0.409
528.47	0.947
528.68	0.445
528.88	0.388
529.09	0.519
529.29	0.749
529.50	0.304
529.70	0.735
529.91	0.362
530.12	1.451
530.32	0.562
530.53	0.491
530.73	0.944
530.94	0.533
531.15	1.276
531.35	1.156
531.56	0.641
531.76	0.932
531.97	1.198
532.17	1.216
532.38	0.824
532.59	1.612
532.79	0.897
533.00	0.893
533.20	0.804
533.41	0.638
533.61	0.969
533.82	0.990
534.03	1.135
534.23	0.773
534.44	0.772
534.64	0.902
534.85	1.354
535.05	0.715
535.26	0.928
535.46	0.984
535.67	1.364
535.88	1.477
536.08	1.540
536.29	1.063
536.49	1.095
536.70	1.471
536.90	0.866
537.11	1.423
537.31	0.541
537.52	1.215
537.72	1.486
537.93	1.163
538.13	1.471
538.34	1.442
538.55	1.045
538.75	1.288
538.96	1.617
539.16	1.218
539.37	1.470
539.57	1.227
539.78	1.487
539.98	1.699
540.19	1.327
540.39	1.958
540.60	1.874
540.80	1.501
541.01	2.104
541.21	2.257
541.42	2.007
541.62	2.136
541.83	2.378
542.03	1.884
542.24	2.224
542.44	2.418
542.65	2.463
542.85	1.881
543.06	2.761
543.26	2.485
543.47	2.249
543.67	2.408
543.88	2.449
544.08	2.946
544.29	2.797
544.49	2.723
544.70	2.241
544.90	2.935
545.11	2.650
545.31	3.287
545.52	3.493
545.72	4.301
545.93	4.684
546.13	4.572
546.34	5.915
546.54	6.861
546.75	7.504
546.95	9.515
547.15	12.231
547.36	13.559
547.56	15.181
547.77	17.772
547.97	19.810
548.18	22.948
548.38	24.815
548.59	27.228
548.79	29.580
549.00	34.490
549.20	37.740
549.41	41.648
549.61	44.213
549.81	46.781
550.02	49.995
550.22	51.466
550.43	55.359
550.63	59.873
550.84	63.372
551.04	66.139
551.25	68.988
551.45	72.033
551.65	75.952
551.86	76.671
552.06	78.971
552.27	82.379
552.47	83.397
552.68	86.238
552.88	89.200
553.08	89.784
553.29	89.969
553.49	91.494
553.70	91.939
553.90	93.165
554.11	93.163
554.31	92.932
554.51	93.988
554.72	93.871
554.92	94.175
555.13	94.815
555.33	95.083
555.53	95.078
555.74	95.427
555.94	91.264
556.15	89.937
556.35	89.136
556.56	88.860
556.76	89.273
556.96	90.705
557.17	91.053
557.37	91.309
557.58	91.277
557.78	91.909
557.98	94.013
558.19	94.295
558.39	93.107
558.59	91.416
558.80	91.216
559.00	89.681
559.21	89.060
559.41	89.870
559.61	87.149
559.82	87.940
560.02	86.846
560.23	86.666
560.43	86.961
560.63	86.360
560.84	88.616
561.04	90.745
561.24	93.119
561.45	94.823
561.65	95.242
561.85	94.934
562.06	94.023
562.26	92.190
562.47	90.553
562.67	90.684
562.87	89.797
563.08	87.688
563.28	87.461
563.48	88.278
563.69	87.466
563.89	90.287
564.09	91.381
564.30	90.868
564.50	89.713
564.70	90.033
564.91	88.388
565.11	86.042
565.31	85.746
565.52	83.051
565.72	82.478
565.92	82.386
566.13	83.131
566.33	84.730
566.53	85.456
566.74	87.051
566.94	88.728
567.14	90.495
567.35	91.312
567.55	91.075
567.75	89.424
567.96	88.260
568.16	85.419
568.36	84.626
568.57	85.388
568.77	87.271
568.97	87.203
569.18	88.166
569.38	88.263
569.58	89.341
569.79	88.969
569.99	88.417
570.19	89.381
570.39	90.834
570.60	89.264
570.80	87.692
571.00	87.756
571.21	86.874
571.41	89.098
571.61	89.951
571.82	88.149
572.02	87.940
572.22	88.381
572.42	87.261
572.63	88.421
572.83	90.606
573.03	87.398
573.24	88.374
573.44	88.346
573.64	87.957
573.84	89.300
574.05	91.558
574.25	93.159
574.45	93.687
574.66	93.572
574.86	94.070
575.06	94.210
575.26	93.131
575.47	93.030
575.67	90.809
575.87	88.464
576.07	88.437
576.28	86.899
576.48	85.618
576.68	86.796
576.88	89.136
577.09	92.369
577.29	92.804
577.49	92.014
577.69	90.534
577.90	89.251
578.10	91.868
578.30	90.802
578.50	89.409
578.71	88.125
578.91	89.212
579.11	90.101
579.31	91.690
579.52	97.466
579.72	96.887
579.92	93.251
580.12	93.235
580.33	89.371
580.53	87.476
580.73	85.787
580.93	85.333
581.13	86.218
581.34	87.306
581.54	89.510
581.74	94.363
581.94	94.256
582.15	93.082
582.35	90.603
582.55	89.023
582.75	87.617
582.95	88.929
583.16	88.272
583.36	87.605
583.56	87.077
583.76	85.242
583.96	87.395
584.17	88.046
584.37	89.445
584.57	89.494
584.77	89.154
584.97	87.713
585.18	85.221
585.38	83.723
585.58	83.038
585.78	84.783
585.98	89.609
586.19	92.214
586.39	96.531
586.59	96.710
586.79	93.881
586.99	90.960
587.20	87.761
587.40	86.736
587.60	85.683
587.80	87.360
588.00	87.424
588.20	88.929
588.41	90.194
588.61	90.954
588.81	90.486
589.01	87.828
589.21	86.911
589.41	87.673
589.62	85.861
589.82	85.071
590.02	85.641
590.22	87.142
590.42	87.743
590.62	90.112
590.83	88.843
591.03	89.692
591.23	89.457
591.43	89.969
591.63	89.659
591.83	89.938
592.03	87.119
592.24	87.403
592.44	87.390
592.64	85.297
592.84	85.666
593.04	83.028
593.24	85.072
593.44	86.670
593.65	88.930
593.85	89.346
594.05	91.197
594.25	94.086
594.45	93.092
594.65	92.422
594.85	90.205
595.06	85.086
595.26	83.213
595.46	83.197
595.66	82.542
595.86	83.809
596.06	86.205
596.26	88.008
596.46	90.298
596.66	92.048
596.87	93.069
597.07	92.719
597.27	94.982
597.47	94.509
597.67	95.856
597.87	92.948
598.07	93.964
598.27	93.900
598.47	92.529
598.67	91.914
598.88	91.319
599.08	89.693
599.28	89.187
599.48	86.737
599.68	88.060
599.88	88.226
600.08	88.616
600.28	88.878
600.48	91.979
600.68	92.179
600.88	92.807
601.09	92.183
601.29	92.433
601.49	93.182
601.69	91.893
601.89	90.172
602.09	90.682
602.29	91.814
602.49	90.209
602.69	89.408
602.89	85.860
603.09	84.293
603.29	81.965
603.49	81.397
603.69	77.458
603.90	74.812
604.10	72.367
604.30	70.571
604.50	69.073
604.70	66.031
604.90	61.356
605.10	59.997
605.30	57.361
605.50	54.700
605.70	49.825
605.90	46.176
606.10	41.988
606.30	36.869
606.50	32.217
606.70	28.472
606.90	24.117
607.10	19.538
607.30	16.500
607.50	13.319
607.70	11.110
607.90	9.039
608.10	7.578
608.30	6.008
608.50	4.810
608.70	3.707
608.90	2.780
609.11	2.056
609.31	1.979
609.51	1.553
609.71	1.499
609.91	1.311
610.11	1.299
610.31	1.173
610.51	1.328
610.71	1.530
610.91	1.424
611.11	1.519
611.31	1.408
611.51	1.720
611.71	1.133
611.91	1.135
612.11	1.082
612.31	1.169
612.51	1.121
612.71	1.044
612.91	1.138
613.11	1.124
613.31	0.821
613.51	0.893
613.71	0.910
613.91	0.897
614.11	0.964
614.31	0.905
614.50	0.850
614.70	0.952
614.90	0.822
615.10	0.649
615.30	0.926
615.50	0.891
615.70	0.517
615.90	0.796
616.10	0.773
616.30	0.764
616.50	0.687
616.70	0.778
616.90	0.526
617.10	0.685
617.30	0.366
617.50	0.579
617.70	0.450
617.90	0.548
618.10	0.796
618.30	0.536
618.50	0.543
618.70	0.615
618.90	0.380
619.10	0.643
619.30	0.570
619.49	0.537
619.69	0.769
619.89	0.613
620.09	0.514
620.29	0.623
620.49	0.228
620.69	0.504
620.89	0.462
621.09	0.629
621.29	0.756
621.49	0.721
621.69	0.751
621.89	0.510
622.09	0.576
622.29	0.623
622.48	0.545
622.68	0.439
622.88	0.450
623.08	0.345
623.28	0.213
623.48	0.622
623.68	0.567
623.88	0.334
624.08	0.623
624.28	0.763
624.48	0.461
624.67	0.628
624.87	0.483
625.07	0.602
625.27	0.508
625.47	0.685
625.67	0.275
625.87	0.481
626.07	0.476
626.27	0.441
626.47	0.718
626.66	0.380
626.86	0.451
627.06	0.390
627.26	0.346
627.46	0.578
627.66	0.712
627.86	0.373
628.06	0.606
628.25	0.849
628.45	0.395
628.65	0.438
628.85	0.579
629.05	0.485
629.25	0.473
629.45	0.452
629.65	0.665
629.84	0.334
630.04	0.657
630.24	0.626
630.44	0.887
630.64	0.588
630.84	0.513
631.04	0.662
631.23	0.636
631.43	0.544
631.63	0.577
631.83	0.512
632.03	0.784
632.23	0.571
632.42	0.543
632.62	0.629
632.82	0.490
633.02	0.780
633.22	0.591
633.42	0.675
633.62	0.752
633.81	0.771
634.01	0.535
634.21	0.552
634.41	0.648
634.61	0.576
634.80	0.607
635.00	0.687
635.20	0.758
635.40	0.814
635.60	0.705
635.80	0.620
635.99	0.774
636.19	0.788
636.39	0.648
636.59	0.834
636.79	0.899
636.98	0.783
637.18	0.868
637.38	0.752
637.58	0.842
637.78	0.846
637.97	0.931
638.17	0.951
638.37	1.158
638.57	0.931
638.77	0.873
638.96	0.846
639.16	1.003
639.36	0.870
639.56	0.929
639.76	0.896
639.95	1.043
640.15	0.817
640.35	0.910
640.55	0.878
640.75	1.210
640.94	1.132
641.14	0.754
641.34	1.144
641.54	1.174
641.73	1.115
641.93	1.222
642.13	1.296
642.33	1.073
642.53	0.926
642.72	1.293
642.92	1.360
643.12	1.284
643.32	1.550
643.51	1.300
643.71	1.398
643.91	1.560
644.11	1.583
644.30	1.748
644.50	1.718
644.70	1.717
644.90	2.015
645.09	2.293
645.29	2.634
645.49	3.220
645.69	3.393
645.88	4.387
646.08	5.002
646.28	5.944
646.48	7.097
646.67	8.685
646.87	9.950
647.07	11.773
647.26	13.576
647.46	15.760
647.66	17.988
647.86	20.252
648.05	23.186
648.25	25.466
648.45	28.106
648.65	31.919
648.84	34.209
649.04	37.565
649.24	41.129
649.43	43.515
649.63	47.545
649.83	48.862
650.03	53.000
650.22	56.752
650.42	60.842
650.62	64.596
650.81	66.022
651.01	67.347
651.21	69.426
651.40	71.638
651.60	72.179
651.80	74.336
652.00	75.767
652.19	77.054
652.39	77.623
652.59	78.592
652.78	79.256
652.98	80.465
653.18	80.951
653.37	80.722
653.57	81.520
653.77	82.321
653.96	85.709
654.16	88.522
654.36	90.208
654.55	90.396
654.75	89.052
654.95	88.174
655.14	86.418
655.34	85.609
655.54	85.229
655.73	84.115
655.93	86.881
656.13	86.788
656.32	88.118
656.52	89.710
656.72	88.815
656.91	89.173
657.11	89.139
657.31	89.025
657.50	89.620
657.70	91.078
657.90	92.912
658.09	93.061
658.29	94.059
658.49	92.021
658.68	91.234
658.88	90.447
659.07	91.377
659.27	92.384
659.47	90.818
659.66	90.322
659.86	88.520
660.06	89.302
660.25	87.861
660.45	89.848
660.64	90.932
660.84	90.109
661.04	90.634
661.23	89.990
661.43	90.296
661.63	91.561
661.82	91.381
662.02	91.633
662.21	91.333
662.41	91.069
662.61	89.431
662.80	89.264
663.00	88.653
663.19	88.064
663.39	87.275
663.59	88.810
663.78	87.953
663.98	88.909
664.17	90.620
664.37	91.316
664.57	88.425
664.76	87.840
664.96	86.659
665.15	85.691
665.35	84.887
665.55	83.362
665.74	83.409
665.94	83.441
666.13	83.301
666.33	83.470
666.53	83.820
666.72	86.122
666.92	88.730
667.11	92.083
667.31	92.428
667.50	93.900
667.70	94.692
667.90	93.556
668.09	93.562
668.29	94.037
668.48	92.930
668.68	92.204
668.87	91.606
669.07	89.264
669.26	89.168
669.46	89.531
669.66	88.703
669.85	88.542
670.05	87.646
670.24	87.834
670.44	86.720
670.63	87.188
670.83	88.093
671.02	88.710
671.22	87.711
671.42	89.958
671.61	91.310
671.81	92.068
672.00	92.412
672.20	90.748
672.39	90.639
672.59	89.134
672.78	88.852
672.98	88.403
673.17	88.581
673.37	89.744
673.56	89.779
673.76	91.379
673.95	92.827
674.15	92.251
674.34	92.546
674.54	88.847
674.73	85.116
674.93	84.532
675.13	84.184
675.32	85.568
675.52	88.382
675.71	90.044
675.91	90.939
676.10	90.789
676.30	88.927
676.49	89.409
676.69	88.157
676.88	89.438
677.08	90.388
677.27	90.005
677.47	90.060
677.66	89.591
677.86	87.178
678.05	84.449
678.24	83.287
678.44	80.957
678.63	79.480
678.83	80.235
679.02	81.591
679.22	83.346
679.41	86.299
679.61	87.502
679.80	91.299
680.00	91.829
680.19	91.484
680.39	90.797
680.58	88.981
680.78	89.355
680.97	89.860
681.17	88.376
681.36	87.744
681.56	87.548
681.75	89.574
681.94	90.805
682.14	92.127
682.33	92.094
682.53	91.712
682.72	90.087
682.92	90.293
683.11	89.800
683.31	88.577
683.50	88.679
683.69	89.996
683.89	91.375
684.08	91.156
684.28	91.201
684.47	90.020
684.67	89.843
684.86	89.783
685.06	89.691
685.25	90.271
685.44	89.523
685.64	88.560
685.83	87.803
686.03	86.606
686.22	85.932
686.42	88.210
686.61	88.882
686.80	89.205
687.00	88.537
687.19	88.968
687.39	88.251
687.58	87.209
687.77	86.118
687.97	84.616
688.16	82.893
688.36	83.244
688.55	83.757
688.74	84.028
688.94	86.175
689.13	86.336
689.33	86.071
689.52	86.108
689.71	84.066
689.91	83.344
690.10	83.243
690.30	83.190
690.49	85.760
690.68	88.354
690.88	89.503
691.07	91.780
691.27	92.930
691.46	94.880
691.65	97.803
691.85	100.017
692.04	101.977
692.23	102.215
692.43	102.622
692.62	99.708
692.82	98.625
693.01	93.377
693.20	90.447
693.40	87.602
693.59	86.337
693.78	85.221
693.98	84.851
694.17	84.705
694.36	84.655
694.56	86.595
694.75	87.134
694.94	87.017
695.14	89.101
695.33	89.035
695.53	91.365
695.72	91.724
695.91	93.371
696.11	93.732
696.30	92.896
696.49	92.489
696.69	91.282
696.88	91.562
697.07	92.449
697.27	90.436
697.46	90.499
697.65	86.636
697.85	83.616
698.04	83.154
698.23	82.783
698.43	82.849
698.62	84.253
698.81	83.052
699.01	83.400
699.20	85.181
699.39	88.638
699.58	91.762
699.78	92.716
699.97	92.013
700.16	90.999
700.36	88.685
700.55	87.149
700.74	85.152
700.94	83.855
701.13	82.170
701.32	80.606
701.52	79.091
701.71	78.092
701.90	77.519
702.09	76.900
702.29	76.673
702.48	77.879
702.67	77.199
702.87	77.020
703.06	72.328
703.25	68.825
703.44	64.007
703.64	61.673
703.83	59.154
704.02	56.887
704.22	55.316
704.41	53.853
704.60	51.214
704.79	48.041
704.99	45.055
705.18	41.378
705.37	37.539
705.56	33.058
705.76	30.079
705.95	26.559
706.14	24.153
706.33	21.951
706.53	19.436
706.72	16.668
706.91	14.756
707.11	13.179
707.30	11.161
707.49	9.675
707.68	7.814
707.88	6.396
708.07	5.301
708.26	4.230
708.45	3.439
708.64	2.874
708.84	2.259
709.03	2.051
709.22	1.724
709.41	1.408
709.61	0.978
709.80	1.211
709.99	0.905
710.18	1.063
710.38	0.830
710.57	1.018
710.76	1.031
710.95	0.972
711.14	0.611
711.34	0.872
711.53	0.748
711.72	0.654
711.91	0.487
712.11	0.597
712.30	0.622
712.49	0.465
712.68	0.729
712.87	0.532
713.07	0.504
713.26	0.539
713.45	0.547
713.64	0.522
713.83	0.556
714.03	0.743
714.22	0.353
714.41	0.485
714.60	0.203
714.79	0.354
714.99	0.448
715.18	0.389
715.37	0.478
715.56	0.536
715.75	0.522
715.94	0.560
716.14	0.427
716.33	0.459
716.52	0.276
716.71	0.407
716.90	0.684
717.10	0.289
717.29	0.662
717.48	0.188
717.67	0.414
717.86	0.439
718.05	0.331
718.24	0.318
718.44	0.275
718.63	0.226
718.82	0.541
719.01	0.168
719.20	0.297
719.39	0.113
719.59	0.311
719.78	0.300
719.97	0.287
720.16	0.295
720.35	0.355
720.54	0.274
720.73	0.205
720.93	0.496
721.12	0.367
721.31	0.252
721.50	0.472
721.69	0.081
721.88	0.230
722.07	0.245
722.27	0.464
722.46	0.137
722.65	0.375
722.84	0.316
723.03	0.230
723.22	0.170
723.41	0.334
723.60	0.291
723.79	0.421
723.99	0.226
724.18	0.284
724.37	0.197
724.56	0.392
724.75	0.402
724.94	0.212
725.13	0.418
725.32	0.147
725.51	0.227
725.71	0.132
725.90	0.186
726.09	0.463
726.28	0.114
726.47	0.105
726.66	0.326
726.85	0.290
727.04	0.213
727.23	0.335
727.42	0.533
727.61	0.127
727.81	0.448
728.00	0.313
728.19	0.182
728.38	0.028
728.57	0.363
728.76	0.144
728.95	0.215
729.14	0.207
729.33	0.055
729.52	0.201
729.71	0.155
729.90	0.176
730.09	-0.056
730.28	-0.040
730.48	0.071
730.67	0.414
730.86	0.036
731.05	0.146
731.24	0.158
731.43	0.335
731.62	0.211
731.81	0.158
732.00	0.232
732.19	0.011
732.38	0.070
732.57	0.244
732.76	0.233
732.95	0.177
733.14	0.418
733.33	0.119
733.52	0.290
733.71	0.272
733.90	0.010
734.09	0.159
734.28	0.000
734.47	0.358
734.66	0.176
734.85	0.010
735.04	0.123
735.23	0.126
735.42	0.017
735.61	0.366
735.81	-0.045
736.00	0.068
736.19	-0.063
736.38	-0.051
736.57	0.079
736.76	0.055
736.95	0.126
737.14	-0.011
737.33	0.475
737.52	-0.041
737.71	0.052
737.90	0.211
738.09	-0.164
738.28	-0.098
738.47	-0.051
738.66	-0.011
738.85	-0.250
739.04	0.158
739.22	0.023
739.41	0.299
739.60	0.104
739.79	0.023
739.98	0.137
740.17	0.215
740.36	0.230
740.55	0.177
740.74	0.192
740.93	0.126
741.12	-0.061
741.31	0.006
741.50	0.223
741.69	0.046
741.88	0.169
742.07	0.086
742.26	0.229
742.45	0.150
742.64	0.294
742.83	0.285
743.02	-0.041
743.21	0.214
743.40	0.245
743.59	0.081
743.78	0.234
743.97	-0.084
744.16	0.245
744.34	0.468
744.53	0.590
744.72	0.107
744.91	0.414
745.10	0.052
745.29	0.308
745.48	0.103
745.67	0.082
745.86	0.359
746.05	0.184
746.24	0.202
746.43	0.291
746.62	0.025
746.81	-0.045
747.00	-0.020
747.18	0.071
747.37	0.077
747.56	0.236
747.75	0.168
747.94	0.000
748.13	0.007
748.32	0.130
748.51	0.159
748.70	-0.167
748.89	-0.091
749.08	0.145
749.26	0.199
749.45	-0.068
749.64	0.111
749.83	-0.135
750.02	0.115
750.21	0.000
750.40	0.182
750.59	0.007
750.78	0.319
750.96	0.038
751.15	0.232
751.34	-0.052
751.53	0.121
751.72	-0.196
751.91	0.126
752.10	0.030
752.29	0.365
752.47	0.149
752.66	0.236
752.85	-0.184
753.04	-0.372
753.23	0.409
753.42	-0.215
753.61	0.192
753.80	0.192
753.98	0.016
754.17	0.467
754.36	0.487
754.55	0.107
754.74	0.017
754.93	-0.070
755.12	0.157
755.30	0.232
755.49	0.273
755.68	-0.208
755.87	-0.107
756.06	0.358
756.25	0.000
756.43	0.282
756.62	0.372
756.81	0.466
757.00	0.355
757.19	0.336
757.38	-0.018
757.56	0.223
757.75	0.207
757.94	0.243
758.13	0.261
758.32	0.759
758.51	0.109
758.69	0.020
758.88	0.357
759.07	-0.030
759.26	0.264
759.45	0.579
759.63	0.368
759.82	0.401
760.01	0.170
760.20	-0.393
760.39	0.569
760.57	0.210
760.76	0.289
760.95	0.746
761.14	0.090
761.33	-0.228
761.51	0.174
761.70	0.348
761.89	0.492
762.08	0.590
762.27	0.630
762.45	0.164
762.64	0.059
762.83	0.684
763.02	-0.285
763.21	-0.441
763.39	0.153
763.58	-0.383
763.77	0.447
763.96	0.374
764.14	0.446
764.33	-0.169
764.52	-0.252
764.71	0.267
764.89	-0.027
765.08	0.261
765.27	-0.254
765.46	-0.226
765.65	0.345
765.83	-0.041
766.02	0.162
766.21	-0.228
766.40	-0.336
766.58	0.219
766.77	0.385
766.96	-0.304
767.15	1.042
767.33	0.092
767.52	0.015
767.71	0.109
767.90	-0.298
768.08	0.569
768.27	0.128
768.46	0.000
768.64	-0.309
768.83	-0.247
769.02	0.220
769.21	-0.387
769.39	0.068
769.58	0.137
769.77	0.069
769.96	0.836
770.14	-0.290
770.33	0.067
770.52	0.897
770.70	0.205
770.89	0.635
771.08	-0.289
771.27	0.550
771.45	0.154
771.64	0.139
771.83	0.340
772.01	0.455
772.20	0.554
772.39	0.263
772.57	-0.508
772.76	0.091
772.95	0.164
773.14	0.464
773.32	0.111
773.51	-0.114
773.70	0.094
773.88	-0.232
774.07	-0.155
774.26	0.228
774.44	0.229
774.63	1.091
774.82	-0.234
775.00	0.151
775.19	0.380
775.38	0.809
775.56	-0.152
775.75	0.576
775.94	-0.177
776.12	0.744
776.31	-0.060
776.50	0.998
776.68	0.640
776.87	0.443
777.06	-0.914
777.24	-0.467
777.43	0.513
777.62	0.739
777.80	-0.082
777.99	-0.849
778.18	1.314
778.36	0.167
778.55	0.601
778.74	0.764
778.92	-0.581
779.11	0.767
779.29	0.225
779.48	1.142
779.67	-0.738
779.85	0.403
780.04	0.348
780.23	0.800
780.41	0.000
780.60	0.143
780.79	-0.020
780.97	-0.040
781.16	0.138
781.34	-0.219
781.53	0.000
781.72	0.430
781.90	0.117
782.09	1.165
782.28	0.583
782.46	0.647
782.65	0.392
782.83	0.262
783.02	-0.662
783.21	0.494
783.39	0.416
783.58	-0.193
783.76	0.076
783.95	-0.230
784.14	0.597
784.32	-0.092
784.51	-0.145
784.69	0.287
784.88	0.091
785.06	-0.796
785.25	-0.249
785.44	0.496
785.62	-0.018
785.81	0.398
785.99	0.271
786.18	-0.388
786.37	-0.575
786.55	0.057
786.74	-0.228
786.92	-0.257
787.11	0.297
787.29	0.158
787.48	0.279
787.67	0.335
787.85	-0.331
788.04	0.251
788.22	0.443
788.41	0.393
788.59	0.038
788.78	0.207
788.96	-1.136
789.15	0.405
789.34	0.898
789.52	-0.598
789.71	0.417
789.89	0.511
790.08	0.220
790.26	-0.072
790.45	-0.600
790.63	0.179
790.82	-0.018
791.00	0.192
791.19	0.248
791.38	0.361
791.56	0.303
791.75	0.000
791.93	0.437
792.12	1.178
792.30	0.087
792.49	-0.515
792.67	0.655
792.86	-0.184
793.04	0.102
793.23	0.104
793.41	-0.242
793.60	0.052
793.78	0.069
793.97	0.365
794.15	0.973
794.34	0.583
794.52	0.468
794.71	-0.017
794.89	-0.017
795.08	-0.065
795.26	-0.422
795.45	0.456
795.63	0.419
795.82	0.060
796.00	0.163
796.19	-0.030
796.37	-0.150
796.56	-0.119
796.74	0.638
796.93	0.193
797.11	0.058
797.30	0.072
797.48	-0.202
797.67	0.719
797.85	0.440
798.04	0.510
798.22	-0.045
798.41	-0.107
798.59	0.353
798.77	-0.122
798.96	0.108
799.14	0.108
799.33	0.287
799.51	0.181
799.70	-0.075
799.88	-0.424
800.07	-0.358
800.25	0.517
800.44	-0.528
800.62	0.000
800.80	-0.132
800.99	-0.177
801.17	-0.636
801.36	0.415
801.54	0.486
801.73	-0.235
801.91	0.088
802.10	0.203
802.28	0.175
802.46	0.661
802.65	-0.575
802.83	-0.116
803.02	0.557
803.20	0.000
803.39	-0.058
803.57	-0.045
803.75	-0.090
803.94	-0.289
804.12	0.622
804.31	0.547
804.49	0.112
804.67	0.148
804.86	0.229
805.04	-0.170
805.23	0.653
805.41	0.486
805.59	0.081
805.78	-0.527
805.96	0.233
806.15	0.077
806.33	-0.247
806.51	-0.015
806.70	-0.137
806.88	-0.381
807.07	0.247
807.25	0.348
807.43	0.127
807.62	0.638
807.80	-0.287
807.99	-0.109
808.17	-0.650
808.35	-1.181
808.54	0.685
808.72	0.832
808.90	-0.512
809.09	0.361
809.27	0.045
809.46	-0.528
809.64	0.136
809.82	-0.541
810.01	-0.262
810.19	-0.061
810.37	-0.045
810.56	-0.194
810.74	0.210
810.92	0.030
811.11	-0.330
811.29	0.198
811.48	-0.341
811.66	0.268
811.84	0.612
812.03	0.262
812.21	0.541
812.39	0.000
812.58	0.214
812.76	-0.363
812.94	0.386
813.13	0.497
813.31	0.097
813.49	0.473
813.68	0.561
813.86	-0.077
814.04	0.000
814.23	0.251
814.41	-0.311
814.59	-0.030
814.78	0.118
814.96	0.294
815.14	0.118
815.33	-0.076
815.51	-0.971
815.69	0.156
815.87	0.336
816.06	0.226
816.24	0.000
816.42	0.970
816.61	0.034
816.79	-0.244
816.97	-0.653
817.16	-0.165
817.34	1.105
817.52	0.114
817.70	-0.113
817.89	-0.074
818.07	0.249
818.25	0.257
818.44	-0.091
818.62	-0.179
818.80	0.142
818.98	0.427
819.17	-0.489
819.35	0.613
819.53	0.663
819.72	-0.339
819.90	0.923
820.08	-0.077
820.26	0.714
820.45	-0.020
820.63	-0.298
820.81	0.159
820.99	-0.100
821.18	-0.039
821.36	0.157
821.54	0.269
821.73	-0.194
821.91	1.319
822.09	-0.458
822.27	-0.399
822.46	0.616
822.64	0.587
822.82	0.804
823.00	-0.657
823.19	0.726
823.37	0.172
823.55	0.904
823.73	0.000
823.91	-0.273
824.10	0.919
824.28	0.398
824.46	0.317
824.64	0.357
824.83	-0.467
825.01	-0.143
825.19	-0.094
825.37	-0.458
825.56	1.104
825.74	-0.023
825.92	0.158
826.10	-0.089
826.28	-0.065
826.47	1.597
826.65	0.953
826.83	-1.612
827.01	0.000
827.19	-0.152
827.38	0.044
827.56	1.114
827.74	0.415
827.92	0.722
828.10	-0.024
828.29	-0.887
828.47	1.211
828.65	-0.399
828.83	1.515
829.01	0.074
829.20	0.382
829.38	0.103
829.56	0.802
829.74	-0.155
829.92	1.974
830.10	-0.183
830.29	-0.551
830.47	0.857
830.65	0.645
830.83	0.721
831.01	0.931
831.20	0.684
831.38	-0.102
831.56	-0.151
831.74	-0.438
831.92	0.721
832.10	-0.052
832.29	-0.189
832.47	1.882
832.65	0.668
832.83	-0.482
833.01	-0.083
833.19	0.464
833.37	0.054
833.56	0.140
833.74	0.139
833.92	1.750
834.10	0.369
834.28	0.691
834.46	0.751
834.64	1.132
834.83	0.809
835.01	-0.740
835.19	0.497
835.37	0.194
835.55	-0.082
835.73	0.711
835.91	0.720
836.09	-0.411
836.28	1.125
836.46	1.319
836.64	-0.540
836.82	-0.224
837.00	-0.337
837.18	-1.207
837.36	0.295
837.54	0.918
837.72	0.929
837.91	0.567
838.09	0.249
838.27	-0.408
838.45	-0.380
838.63	0.454
838.81	-0.954
838.99	-1.694
839.17	-0.196
839.35	1.151
839.53	1.794
839.72	-0.069
839.90	1.402
840.08	0.293
840.26	-0.034
840.44	-1.644
840.62	1.709
840.80	0.531
840.98	-1.093
841.16	0.200
841.34	0.458
841.52	-1.553
841.70	0.708
841.89	0.852
842.07	-0.926
842.25	0.427
842.43	1.889
842.61	0.230
842.79	0.966
842.97	-0.068
843.15	0.784
843.33	-0.206
843.51	0.448
843.69	-0.486
843.87	0.877
844.05	2.023
844.23	1.645
844.41	0.513
844.59	0.712
844.77	-1.320
844.95	-0.301
845.13	1.113
845.31	0.409
845.50	0.378
845.68	-0.740
845.86	-1.786
846.04	-2.676
846.22	-1.530
846.40	1.548
846.58	0.110
846.76	1.716
846.94	1.602
847.12	0.385
847.30	-0.895
847.48	0.113
847.66	0.499
847.84	1.628
848.02	0.891
848.20	0.657
848.38	1.167
848.56	0.668
848.74	-1.772
848.92	-0.875
849.10	-0.392
849.28	0.163
849.46	-0.778
849.64	0.932
849.82	1.556
850.00	-0.083
850.18	-0.994
850.36	0.284
850.54	0.639
850.72	1.163
850.90	1.258
851.08	-1.617
851.26	-0.457
851.44	2.015
851.62	0.855
851.80	2.351
851.98	1.293
852.16	1.837
852.34	3.024
852.52	3.533
852.70	0.373
852.87	1.933
853.05	-0.041
853.23	1.720
853.41	0.082
853.59	1.561
853.77	0.831
853.95	0.125
854.13	1.339
854.31	1.517
854.49	0.759
854.67	-0.508
854.85	1.063
855.03	1.361
855.21	-0.423
855.39	1.581
855.57	1.086
855.75	1.642
855.93	0.787
856.11	-1.480
856.28	1.509
856.46	2.911
856.64	2.033
856.82	2.758
857.00	1.075
857.18	0.437
857.36	-0.119
857.54	1.799
857.72	1.063
857.90	2.032
858.08	2.027
858.26	-0.232
858.44	2.261
858.61	0.332
858.79	-0.160
858.97	1.306
859.15	2.256
859.33	1.304
859.51	0.114
859.69	1.163
859.87	1.887
860.05	1.356
860.23	1.428
860.40	3.167
860.58	1.462
860.76	2.462
860.94	1.874
861.12	1.450
861.30	2.708
861.48	2.178
861.66	1.133
861.84	1.993
862.01	3.806
862.19	4.670
862.37	3.727
862.55	2.153
862.73	3.324
862.91	3.101
863.09	3.888
863.27	3.873
863.44	4.649
863.62	5.209
863.80	3.629
863.98	6.139
864.16	5.061
864.34	7.687
864.52	5.369
864.69	7.893
864.87	8.215
865.05	8.821
865.23	8.139
865.41	9.517
865.59	11.996
865.76	9.308
865.94	12.309
866.12	10.475
866.30	10.804
866.48	13.005
866.66	12.240
866.83	12.305
867.01	12.884
867.19	12.775
867.37	11.678
867.55	13.170
867.73	11.177
867.90	10.712
868.08	12.850
868.26	14.881
868.44	14.200
868.62	14.981
868.79	14.824
868.97	14.964
869.15	15.703
869.33	17.842
869.51	16.847
869.69	19.409
869.86	16.877
870.04	17.293
870.22	19.085
870.40	21.176
870.57	20.928
870.75	20.608
870.93	22.541
871.11	22.143
871.29	23.132
871.46	23.149
871.64	24.856
871.82	23.405
872.00	25.726
872.18	26.369
872.35	27.231
872.53	27.496
872.71	26.484
872.89	29.247
873.06	30.188
873.24	27.949
873.42	29.286
873.60	29.770
873.77	29.332
873.95	30.041
874.13	28.708
874.31	28.112
874.49	28.003
874.66	26.935
874.84	28.385
875.02	28.010
875.20	28.955
875.37	28.439
875.55	29.374
875.73	29.823
875.91	30.204
876.08	30.346
876.26	35.591
876.44	36.704
876.61	34.356
876.79	32.810
876.97	32.801
877.15	33.630
877.32	33.748
877.50	35.016
877.68	32.946
877.86	32.535
878.03	35.374
878.21	35.372
878.39	33.593
878.56	34.598
878.74	34.024
878.92	33.946
879.10	31.869
879.27	29.046
879.45	28.741
879.63	29.592
879.80	27.690
879.98	27.656
880.16	28.538
880.34	26.180
880.51	25.906
880.69	24.777
880.87	25.402
881.04	22.651
881.22	23.101
881.40	22.423
881.57	22.480
881.75	22.568
881.93	23.000
882.10	22.173
882.28	24.157
882.46	23.899
882.63	23.474
882.81	24.965
882.99	24.937
883.16	22.608
883.34	25.113
883.52	24.484
883.69	26.302
883.87	24.867
884.05	25.016
884.22	27.167
884.40	25.940
884.58	28.469
884.75	28.461
884.93	29.252
885.11	28.323
885.28	28.074
885.46	30.261
885.64	30.376
885.81	28.705
885.99	28.983
886.17	27.680
886.34	29.851
886.52	26.911
886.70	29.474
886.87	27.809
887.05	25.556
887.22	26.196
887.40	24.139
887.58	22.302
887.75	21.248
887.93	21.414
888.11	22.259
888.28	21.679
888.46	19.377
888.63	17.712
888.81	17.280
888.99	16.780
889.16	15.597
889.34	16.977
889.51	14.992
889.69	16.220
889.87	12.906
890.04	13.526
890.22	12.573
890.39	12.303
890.57	10.628
890.75	10.306
890.92	9.658
891.10	9.749
891.27	10.854
891.45	9.881
891.63	9.581
891.80	10.329
891.98	8.475
892.15	9.805
892.33	10.069
892.51	6.833
892.68	10.182
892.86	7.090
893.03	8.501
893.21	7.851
893.38	9.207
893.56	8.391
893.74	7.826
893.91	10.223
894.09	9.553
894.26	8.747
894.44	10.223
894.61	10.104
894.79	11.969
894.96	11.370
895.14	9.550
895.32	9.856
895.49	11.619
895.67	11.828
895.84	11.365
896.02	12.088
896.19	13.436
896.37	13.358
896.54	13.965
896.72	15.371
896.89	15.076
897.07	14.953
897.25	16.027
897.42	17.096
897.60	18.740
897.77	17.842
897.95	18.970
898.12	21.530
898.30	17.926
898.47	20.922
898.65	21.634
898.82	19.924
899.00	24.066
899.17	22.746
899.35	24.703
899.52	21.935
899.70	23.720
899.87	23.464
900.05	22.768
900.22	24.867
900.40	22.117
900.57	23.999
900.75	26.561
900.92	23.318
901.10	25.463
901.27	24.800
901.45	22.189
901.62	24.523
901.80	22.609
901.97	23.729
902.15	21.838
902.32	21.789
902.50	21.470
902.67	21.177
902.85	21.654
903.02	22.050
903.20	21.623
903.37	21.322
903.54	19.367
903.72	19.390
903.89	20.661
904.07	19.311
904.24	20.372
904.42	18.578
904.59	19.851
904.77	16.187
904.94	14.432
905.12	16.389
905.29	15.666
905.47	14.222
905.64	15.484
905.81	15.931
905.99	16.558
906.16	16.783
906.34	17.611
906.51	15.917
906.69	17.867
906.86	17.168
907.03	18.677
907.21	18.775
907.38	19.298
907.56	17.085
907.73	18.484
907.91	20.227
908.08	19.754
908.25	18.556
908.43	21.562
908.60	20.525
908.78	22.198
908.95	22.409
909.13	22.465
909.30	24.958
909.47	24.579
909.65	24.207
909.82	24.514
910.00	26.293
910.17	29.167
910.34	30.034
910.52	32.407
910.69	32.573
910.87	31.728
911.04	37.195
911.21	34.509
911.39	38.195
911.56	40.372
911.73	37.182
911.91	41.923
912.08	40.174
912.26	44.587
912.43	46.964
912.60	47.642
912.78	49.464
912.95	52.608
913.13	53.715
913.30	56.738
913.47	58.378
913.65	56.253
913.82	59.631
913.99	56.662
914.17	58.109
914.34	60.217
914.51	59.911
914.69	59.525
914.86	57.746
915.03	61.676
915.21	62.096
915.38	63.754
915.56	67.046
915.73	74.539
915.90	67.183
916.08	68.727
916.25	69.439
916.42	64.813
916.60	70.090
916.77	69.091
916.94	69.486
917.12	66.107
917.29	63.711
917.46	66.395
917.64	63.266
917.81	64.819
917.98	63.315
918.16	58.655
918.33	62.567
918.50	55.016
918.67	56.221
918.85	59.170
919.02	56.730
919.19	59.010
919.37	59.247
919.54	61.108
919.71	57.236
919.89	60.305
920.06	58.381
920.23	55.543
920.41	55.337
920.58	60.919
920.75	59.312
920.92	56.588
921.10	55.575
921.27	57.536
921.44	57.750
921.62	60.283
921.79	59.814
921.96	63.998
922.13	65.027
922.31	61.753
922.48	63.420
922.65	62.034
922.82	60.539
923.00	60.316
923.17	64.528
923.34	65.876
923.52	61.722
923.69	67.175
923.86	65.916
924.03	67.961
924.21	69.255
924.38	67.699
924.55	69.251
924.72	71.598
924.90	75.121
925.07	74.454
925.24	70.580
925.41	79.535
925.59	72.348
925.76	74.724
925.93	79.779
926.10	75.201
926.28	73.711
926.45	79.604
926.62	68.886
926.79	68.470
926.96	70.295
927.14	65.588
927.31	67.521
927.48	68.627
927.65	66.667
927.83	73.972
928.00	67.824
928.17	69.740
928.34	63.354
928.51	69.146
928.69	65.987
928.86	62.455
929.03	66.570
929.20	64.863
929.37	65.723
929.55	67.764
929.72	66.691
929.89	66.013
930.06	66.998
930.23	62.382
930.41	64.477
930.58	64.420
930.75	67.388
930.92	64.677
931.09	65.306
931.27	63.743
931.44	63.793
931.61	61.238
931.78	60.567
931.95	62.388
932.12	57.310
932.30	63.255
932.47	59.791
932.64	64.312
932.81	61.033
932.98	60.947
933.16	61.378
933.33	62.057
933.50	64.781
933.67	61.079
933.84	65.009
934.01	62.973
934.18	65.494
934.36	63.878
934.53	64.949
934.70	64.230
934.87	60.284
935.04	64.522
935.21	71.145
935.38	67.974
935.56	65.844
935.73	68.955
935.90	74.457
936.07	68.571
936.24	74.098
936.41	73.238
936.58	76.273
936.76	76.356
936.93	88.092
937.10	83.853
937.27	82.009
937.44	75.298
937.61	78.284
937.78	80.422
937.95	82.924
938.13	82.618
938.30	81.209
938.47	69.223
938.64	77.079
938.81	72.009
938.98	73.178
939.15	71.889
939.32	70.557
939.49	64.409
939.66	69.957
939.84	71.446
940.01	69.917
940.18	68.232
940.35	61.482
940.52	63.501
940.69	55.594
940.86	62.295
941.03	57.092
941.20	52.423
941.37	52.781
941.54	54.946
941.71	54.598
941.89	51.684
942.06	49.594
942.23	52.781
942.40	51.839
942.57	49.813
942.74	57.347
942.91	49.174
943.08	51.777
943.25	46.154
943.42	52.107
943.59	52.687
943.76	47.773
943.93	49.113
944.10	55.952
944.27	41.153
944.44	41.473
944.61	52.545
944.79	47.887
944.96	52.303
945.13	47.458
945.30	46.883
945.47	45.342
945.64	46.904
945.81	50.554
945.98	46.759
946.15	44.236
946.32	50.765
946.49	52.053
946.66	47.005
946.83	43.819
947.00	51.515
947.17	39.439
947.34	51.237
947.51	58.652
947.68	53.312
947.85	51.802
948.02	55.893
948.19	58.824
948.36	62.437
948.53	59.170
948.70	59.677
948.87	70.115
949.04	60.534
949.21	66.007
949.38	64.456
949.55	69.352
949.72	64.745
949.89	62.031
950.06	64.021
950.23	67.003
950.40	57.380
950.57	75.315
950.74	76.502
950.91	65.809
951.08	61.324
951.25	66.920
951.42	72.212
951.59	67.631
951.76	62.828
951.93	60.432
952.10	63.406
952.27	61.184
952.44	65.714
952.61	60.430
952.77	60.911
952.94	56.098
953.11	46.857
953.28	51.132
953.45	55.081
953.62	47.368
953.79	52.778
953.96	42.383
954.13	47.701
954.30	51.210
954.47	44.956
954.64	51.346
954.81	45.674
954.98	35.543
955.15	40.600
955.32	39.719
955.49	48.141
955.65	40.200
955.82	41.141
955.99	37.611
956.16	43.195
956.33	36.183
956.50	40.856
956.67	35.211
956.84	28.277
957.01	42.974
957.18	35.388
957.35	30.645
957.52	31.727
957.68	41.518
957.85	34.468
958.02	35.088
958.19	31.463
958.36	37.915
958.53	32.031
958.70	31.906
958.87	26.622
959.04	33.590
959.21	33.260
959.37	39.221
959.54	38.161
959.71	32.701
959.88	38.829
960.05	29.691
960.22	36.650
960.39	23.188
960.56	26.096
960.72	21.830
960.89	16.773
961.06	26.042
961.23	25.624
961.40	29.710
961.57	26.852
961.74	15.415
961.90	19.192
962.07	31.224
962.24	36.882
962.41	30.905
962.58	24.573
962.75	32.427
962.92	33.333
963.08	20.449
963.25	27.549
963.42	28.537
963.59	27.331
963.76	35.666
963.93	38.761
964.10	33.488
964.26	29.916
964.43	30.947
964.60	33.882
964.77	41.898
964.94	37.500
965.10	38.017
965.27	36.613
965.44	42.369
965.61	49.185
965.78	41.364
965.95	46.778
966.11	49.309
966.28	47.922
966.45	34.807
966.62	43.029
966.79	43.386
966.95	53.846
967.12	50.225
967.29	42.404
967.46	50.679
967.63	46.809
967.79	48.373
967.96	60.619
968.13	48.343
968.30	52.165
968.47	46.667
968.63	56.290
968.80	54.309
968.97	54.897
969.14	62.970
969.31	53.632
969.47	58.779
969.64	62.325
969.81	50.951
969.98	59.069
970.14	68.547
970.31	54.565
970.48	63.170
970.65	66.824
970.81	63.542
970.98	49.251
971.15	48.428
971.32	64.667
971.48	55.385
971.65	63.612
971.82	58.916
971.99	66.402
972.15	50.119
972.32	45.305
972.49	52.878
972.66	50.223
972.82	55.530
972.99	52.000
973.16	49.359
973.33	67.299
973.49	56.423
973.66	54.762
973.83	52.041
974.00	61.486
974.16	53.636
974.33	60.056
974.50	52.899
974.67	48.395
974.83	62.470
975.00	55.024
975.17	53.103
975.33	71.262
975.50	59.409
975.67	65.899
975.84	48.504
976.00	65.176
976.17	58.588
976.34	56.533
976.50	54.144
976.67	56.193
976.84	55.867
977.00	55.792
977.17	70.704
977.34	59.809
977.50	65.147
977.67	65.297
977.84	67.049
978.01	62.565
978.17	80.856
978.34	67.494
978.51	66.102
978.67	76.606
978.84	55.172
979.01	68.868
979.17	68.842
979.34	60.363
979.51	72.500
979.67	85.922
979.84	74.347
980.01	74.260
980.17	79.310
980.34	77.604
980.51	89.838
980.67	79.740
980.84	57.938
981.01	63.889
981.17	61.176
981.34	62.105
981.50	68.029
981.67	74.938
981.84	70.660
982.00	60.309
982.17	68.702
982.34	80.607
982.50	75.000
982.67	68.734
982.84	67.290
983.00	77.285
983.17	72.936
983.33	78.222
983.50	84.081
983.67	61.674
983.83	72.829
984.00	73.558
984.17	62.661
984.33	62.250
984.50	66.808
984.66	70.876
984.83	54.060
985.00	66.000
985.16	51.899
985.33	47.500
985.49	43.312
985.66	49.658
985.83	50.000
985.99	59.006
986.16	43.640
986.32	50.803
986.49	53.167
986.66	54.442
986.82	53.930
986.99	45.921
987.15	55.607
987.32	50.943
987.49	47.511
987.65	59.207
987.82	42.526
987.98	48.826
988.15	53.944
988.31	45.154
988.48	56.161
988.65	42.593
988.81	47.651
988.98	43.590
989.14	47.156
989.31	45.059
989.47	53.365
989.64	47.973
989.80	51.174
989.97	38.095
990.14	43.404
990.30	43.269
990.47	39.320
990.63	45.708
990.80	45.773
990.96	48.387
991.13	37.277
991.29	50.356
991.46	52.257
991.62	46.279
991.79	38.205
991.95	52.822
992.12	40.590
992.29	39.634
992.45	47.706
992.62	39.013
992.78	43.606
992.95	51.435
993.11	44.072
993.28	54.034
993.44	48.140
993.61	42.946
993.77	55.497
993.94	45.080
994.10	50.844
994.27	55.012
994.43	65.190
994.60	62.500
994.76	46.420
994.93	52.847
995.09	66.038
995.26	56.553
995.42	49.878
995.59	64.380
995.75	65.278
995.92	59.529
996.08	48.000
996.25	68.395
996.41	52.696
996.58	58.219
996.74	44.374
996.91	54.569
997.07	48.293
997.23	58.088
997.40	50.773
997.56	47.430
997.73	70.500
997.89	44.072
998.06	55.066
998.22	45.946
998.39	47.689
998.55	62.587
998.72	55.374
998.88	58.250
999.05	51.288
999.21	46.539
999.37	55.053
999.54	45.960
999.70	49.672
999.87	43.970
1000.03	55.251
1000.20	37.019
1000.36	38.369
1000.52	39.331
1000.69	45.657
1000.85	39.957
1001.02	40.639
1001.18	34.608
1001.35	36.730
1001.51	29.621
1001.67	41.648
1001.84	29.958
1002.00	33.193
1002.17	33.257
1002.33	26.230
1002.50	38.600
1002.66	33.649
1002.82	39.950
1002.99	24.267
1003.15	38.346
1003.32	39.098
1003.48	24.402
1003.64	32.570
1003.81	32.303
1003.97	35.616
1004.14	37.204
1004.30	31.450
1004.46	36.292
1004.63	29.221
1004.79	22.895
1004.95	16.195
1005.12	23.901
1005.28	28.534
1005.45	19.355
1005.61	29.829
1005.77	20.197
1005.94	26.009
1006.10	22.166
1006.26	25.420
1006.43	22.986
1006.59	22.472
1006.76	21.636
1006.92	28.471
1007.08	23.206
1007.25	21.634
1007.41	12.230
1007.57	20.343
1007.74	12.846
1007.90	15.722
1008.06	32.031
1008.23	30.256
1008.39	16.109
1008.55	22.350
1008.72	7.731
1008.88	16.444
1009.04	22.246
1009.21	29.833
1009.37	7.632
1009.53	19.904
1009.70	24.731
1009.86	20.635
1010.02	15.262
1010.19	18.000
1010.35	12.684
1010.51	33.652
1010.68	27.778
1010.84	18.898
1011.00	21.538
1011.17	21.330
1011.33	25.428
1011.49	17.232
1011.66	23.333
1011.82	14.066
1011.98	20.242
1012.14	24.932
1012.31	23.009
1012.47	23.018
1012.63	9.483
1012.80	33.333
1012.96	21.123
1013.12	23.056
1013.29	22.438
1013.45	20.888
1013.61	19.638
1013.77	28.941
1013.94	22.454
1014.10	13.333
1014.26	30.693
1014.43	24.725
1014.59	27.989
1014.75	22.539
1014.91	33.181
1015.08	16.223
1015.24	20.058
1015.40	15.500
1015.56	22.368
1015.73	18.272
1015.89	28.226
1016.05	15.877
1016.21	20.308
1016.38	19.839
1016.54	10.234
1016.70	31.471
1016.86	37.931
1017.03	15.804
1017.19	25.686
1017.35	33.019
1017.51	28.219
1017.68	34.286
1017.84	28.941
1018.00	39.948
1018.16	28.056
1018.33	29.213
1018.49	46.667
1018.65	24.523
1018.81	40.367
1018.97	30.595
1019.14	34.060
1019.30	34.278
1019.46	22.680
1019.62	14.453
1019.79	25.392
1019.95	35.476
1020.11	17.445
1020.27	31.475
1020.43	36.491
1020.60	23.864
1020.76	43.071
1020.92	41.457
1021.08	34.539
1021.24	52.795
1021.41	40.667
1021.57	32.759
1021.73	30.820
1021.89	44.079
1022.05	45.296
1022.21	42.778
1022.38	26.571
1022.54	42.980
1022.70	49.000
1022.86	37.464
1023.02	49.275
1023.19	39.474
1023.35	32.797
1023.51	37.179
1023.67	32.558
1023.83	31.298
1023.99	36.268
1024.16	42.063
1024.32	45.631
1024.48	37.943
1024.64	25.497
1024.80	25.177
1024.96	46.296
1025.12	40.439
1025.29	31.449
1025.45	40.000
1025.61	28.065
1025.77	41.155
1025.93	47.205
1026.09	28.958
1026.26	44.595
1026.42	51.639
1026.58	37.370
1026.74	41.176
1026.90	43.202
1027.06	36.304
1027.22	33.221
1027.38	48.936
1027.55	55.340
1027.71	54.070
1027.87	44.068
1028.03	34.661
1028.19	52.542
1028.35	30.258
1028.51	41.558
1028.67	31.939
1028.83	25.108
1029.00	36.552
1029.16	50.000
1029.32	36.090
1029.48	37.891
1029.64	46.230
1029.80	51.626
1029.96	56.614
1030.12	51.648
1030.28	42.105
1030.44	63.095
1030.61	61.181
1030.77	43.443
1030.93	45.635
1031.09	34.118
1031.25	46.701
1031.41	39.759
1031.57	40.506
1031.73	24.583
1031.89	50.177
1032.05	43.446
1032.21	40.408
1032.37	43.165
1032.53	61.798
1032.69	57.082
1032.86	21.635
1033.02	44.518
1033.18	31.154
1033.34	34.767
1033.50	39.378
1033.66	50.189
1033.82	60.440
1033.98	25.862
1034.14	46.544
1034.30	52.290
1034.46	57.143
1034.62	41.569
1034.78	40.074
1034.94	41.155
1035.10	51.456
1035.26	45.704
1035.42	58.609
1035.58	32.852
1035.74	53.112
1035.90	49.268
1036.06	45.693
1036.22	29.389
1036.38	34.361
1036.54	48.361
1036.70	55.000
1036.86	42.268
1037.02	47.985
1037.18	66.190
1037.34	59.921
1037.50	62.136
1037.66	68.421
1037.82	66.319
1037.98	52.330
1038.14	51.381
1038.30	50.000
1038.46	61.871
1038.62	58.216
1038.78	63.462
1038.94	66.502
1039.10	61.722
1039.26	63.362
1039.42	53.211
1039.58	72.189
1039.74	54.812
1039.90	48.500
1040.06	63.415
>>>>>End Processed Spectral Data<<<<<
