SpectraSuite Data File
++++++++++++++++++++++++++++++++++++
Date: Wed Jan 25 18:46:32 EET 2017
User: TheoProf
Dark Spectrum Present: Yes
Reference Spectrum Present: Yes
Number of Sampled Component Spectra: 1
Spectrometers: USB4C02475
Integration Time (usec): 64136 (USB4C02475)
Spectra Averaged: 1 (USB4C02475)
Boxcar Smoothing: 0 (USB4C02475)
Correct for Electrical Dark: No (USB4C02475)
Strobe/Lamp Enabled: No (USB4C02475)
Correct for Detector Non-linearity: No (USB4C02475)
Correct for Stray Light: No (USB4C02475)
Number of Pixels in Processed Spectrum: 3648
>>>>>Begin Processed Spectral Data<<<<<
344.91	100.000
345.13	100.000
345.35	100.000
345.57	114.286
345.79	575.000
346.00	152.632
346.22	-550.000
346.44	62.069
346.66	-280.000
346.87	106.897
347.09	-420.000
347.31	60.870
347.53	41.176
347.74	21.053
347.96	150.000
348.18	166.667
348.40	42.105
348.61	84.615
348.83	36.364
349.05	90.164
349.27	4.167
349.48	141.176
349.70	182.353
349.92	51.613
350.14	31.148
350.35	-14.815
350.57	-25.000
350.79	161.765
351.01	60.000
351.22	-150.000
351.44	75.641
351.66	30.000
351.87	27.778
352.09	75.000
352.31	11.429
352.53	35.000
352.74	124.138
352.96	52.000
353.18	9.756
353.40	1200.000
353.61	0.000
353.83	281.818
354.05	-70.000
354.26	19.697
354.48	21.429
354.70	-189.474
354.92	-126.923
355.13	0.000
355.35	79.245
355.57	17.647
355.78	93.548
356.00	45.833
356.22	120.548
356.44	-37.500
356.65	84.615
356.87	53.846
357.09	78.000
357.30	26.531
357.52	183.333
357.74	-1.818
357.95	29.167
358.17	38.636
358.39	23.256
358.60	81.250
358.82	-284.615
359.04	460.000
359.26	-3.922
359.47	22.222
359.69	57.426
359.91	140.000
360.12	-160.000
360.34	121.622
360.56	16.667
360.77	66.667
360.99	-8.621
361.21	55.357
361.42	-8.511
361.64	262.500
361.86	-29.167
362.07	63.415
362.29	36.364
362.51	64.286
362.72	476.923
362.94	64.615
363.16	52.273
363.37	18.750
363.59	128.000
363.81	112.500
364.02	118.367
364.24	-207.692
364.46	67.308
364.67	850.000
364.89	78.788
365.11	-24.074
365.32	35.714
365.54	-89.474
365.76	47.126
365.97	60.606
366.19	-190.909
366.41	-257.143
366.62	45.714
366.84	-271.429
367.05	38.182
367.27	81.818
367.49	29.032
367.70	54.286
367.92	26.316
368.14	16.667
368.35	73.529
368.57	40.506
368.79	71.698
369.00	55.102
369.22	-140.000
369.43	59.375
369.65	-30.000
369.87	62.857
370.08	-58.333
370.30	-400.000
370.51	20.000
370.73	-3.030
370.95	-23.077
371.16	72.222
371.38	562.500
371.60	-566.667
371.81	-65.789
372.03	1.449
372.24	-450.000
372.46	117.241
372.68	120.833
372.89	-21.053
373.11	28.814
373.32	-22.222
373.54	-7.895
373.76	46.939
373.97	94.595
374.19	-56.410
374.40	31.034
374.62	-50.000
374.84	50.000
375.05	12.963
375.27	22.000
375.48	-211.765
375.70	124.138
375.92	-3.846
376.13	56.667
376.35	-3.175
376.56	-471.429
376.78	95.455
376.99	27.692
377.21	-20.930
377.43	134.615
377.64	29.870
377.86	71.429
378.07	100.000
378.29	75.000
378.51	58.025
378.72	13.699
378.94	41.429
379.15	10.526
379.37	-16.000
379.58	-6.250
379.80	22.917
380.01	-47.368
380.23	-17.778
380.45	39.474
380.66	24.638
380.88	-54.545
381.09	-45.312
381.31	118.750
381.52	-4.348
381.74	80.000
381.95	-140.000
382.17	-4.545
382.39	-13.793
382.60	-26.190
382.82	40.000
383.03	-187.500
383.25	-3.750
383.46	-347.368
383.68	-38.636
383.89	52.381
384.11	35.593
384.32	44.186
384.54	26.263
384.76	19.565
384.97	1.961
385.19	2.083
385.40	30.645
385.62	37.931
385.83	63.492
386.05	25.000
386.26	92.593
386.48	-55.738
386.69	30.864
386.91	0.000
387.12	3.077
387.34	-53.846
387.55	-77.778
387.77	-10.959
387.98	25.490
388.20	0.000
388.41	-174.286
388.63	64.000
388.84	110.294
389.06	13.636
389.27	18.812
389.49	50.769
389.70	62.745
389.92	-32.143
390.13	90.816
390.35	35.294
390.56	60.784
390.78	2.273
390.99	50.704
391.21	54.412
391.42	25.926
391.64	-40.000
391.85	127.778
392.07	-600.000
392.28	13.115
392.50	15.556
392.71	-66.129
392.93	1.724
393.14	21.698
393.36	9.434
393.57	-13.978
393.79	-4400.000
394.00	68.627
394.22	-9.722
394.43	9.677
394.65	-30.645
394.86	13.462
395.08	51.899
395.29	14.118
395.50	9.756
395.72	-41.935
395.93	9.774
396.15	23.387
396.36	16.092
396.58	3.478
396.79	-31.081
397.01	29.688
397.22	-2.985
397.44	10.084
397.65	42.500
397.87	-13.514
398.08	15.385
398.29	-7.353
398.51	-4.000
398.72	11.364
398.94	18.421
399.15	-9.901
399.37	38.806
399.58	1.064
399.80	-2.941
400.01	28.571
400.22	37.963
400.44	20.000
400.65	2.941
400.87	-2.586
401.08	1.515
401.30	-20.833
401.51	53.226
401.72	20.645
401.94	25.862
402.15	-10.345
402.37	4.717
402.58	-38.889
402.80	50.685
403.01	-20.988
403.22	36.842
403.44	12.879
403.65	25.000
403.87	26.429
404.08	10.256
404.30	-6.154
404.51	16.102
404.72	23.404
404.94	42.748
405.15	4.730
405.37	3.937
405.58	-12.857
405.79	-9.474
406.01	29.412
406.22	7.200
406.44	10.638
406.65	20.000
406.86	17.219
407.08	13.889
407.29	6.579
407.51	-4.487
407.72	5.556
407.93	32.237
408.15	31.902
408.36	13.139
408.58	10.270
408.79	39.437
409.00	10.968
409.22	-4.918
409.43	-19.858
409.64	-18.750
409.86	1.852
410.07	-3.797
410.29	16.355
410.50	-7.627
410.71	7.843
410.93	-4.278
411.14	17.178
411.35	25.490
411.57	-17.470
411.78	-5.917
412.00	39.860
412.21	-0.685
412.42	1.796
412.64	-15.909
412.85	11.696
413.06	-9.633
413.28	-18.667
413.49	7.729
413.70	2.825
413.92	7.586
414.13	-45.536
414.34	-4.712
414.56	-0.613
414.77	11.176
414.98	-5.236
415.20	9.249
415.41	-5.556
415.63	15.789
415.84	3.431
416.05	35.652
416.27	-0.455
416.48	31.148
416.69	19.369
416.91	12.077
417.12	10.938
417.33	5.485
417.55	-4.651
417.76	-4.598
417.97	6.341
418.19	21.739
418.40	13.736
418.61	13.445
418.83	1.357
419.04	17.568
419.25	1.230
419.46	5.240
419.68	8.571
419.89	-0.535
420.10	16.736
420.32	13.147
420.53	-0.402
420.74	-0.385
420.96	5.976
421.17	10.277
421.38	11.494
421.60	0.000
421.81	3.750
422.02	4.215
422.23	14.108
422.45	10.000
422.66	14.167
422.87	4.962
423.09	-29.956
423.30	0.000
423.51	8.487
423.73	8.225
423.94	5.882
424.15	3.475
424.36	17.813
424.58	1.730
424.79	28.053
425.00	11.268
425.22	10.667
425.43	13.406
425.64	3.571
425.85	-23.482
426.07	6.625
426.28	-6.164
426.49	-1.107
426.71	-5.556
426.92	0.296
427.13	-0.660
427.34	1.515
427.56	3.571
427.77	-1.562
427.98	-11.694
428.19	-17.375
428.41	-7.850
428.62	-11.644
428.83	12.256
429.04	9.627
429.26	9.440
429.47	10.769
429.68	-2.462
429.89	10.714
430.11	10.677
430.32	15.040
430.53	10.952
430.74	-5.590
430.96	11.257
431.17	3.704
431.38	0.323
431.59	-9.786
431.81	8.065
432.02	-3.933
432.23	3.409
432.44	-1.538
432.66	9.218
432.87	-17.629
433.08	5.093
433.29	2.792
433.51	11.029
433.72	11.475
433.93	14.685
434.14	11.033
434.35	-1.937
434.57	9.853
434.78	6.024
434.99	11.853
435.20	6.990
435.42	-2.664
435.63	10.332
435.84	6.678
436.05	13.404
436.26	3.089
436.48	11.776
436.69	12.340
436.90	4.223
437.11	15.829
437.32	5.428
437.54	8.524
437.75	15.109
437.96	0.599
438.17	-2.625
438.38	18.876
438.60	11.007
438.81	7.229
439.02	2.569
439.23	4.444
439.44	2.734
439.66	15.000
439.87	6.783
440.08	19.421
440.29	10.465
440.50	5.631
440.72	2.894
440.93	1.961
441.14	6.119
441.35	6.395
441.56	7.130
441.77	13.957
441.99	18.408
442.20	13.082
442.41	16.816
442.62	13.793
442.83	19.595
443.04	16.530
443.26	19.936
443.47	25.564
443.68	28.620
443.89	22.284
444.10	27.778
444.31	27.949
444.53	38.898
444.74	38.449
444.95	28.391
445.16	39.933
445.37	33.981
445.58	39.194
445.80	45.073
446.01	47.496
446.22	48.376
446.43	48.160
446.64	44.410
446.85	51.756
447.06	51.351
447.28	53.947
447.49	61.164
447.70	72.630
447.91	61.689
448.12	63.333
448.33	76.690
448.54	80.216
448.76	78.094
448.97	71.509
449.18	82.229
449.39	77.029
449.60	77.388
449.81	84.077
450.02	78.138
450.23	81.771
450.45	79.605
450.66	75.723
450.87	85.109
451.08	82.426
451.29	88.317
451.50	81.423
451.71	77.647
451.92	75.368
452.13	80.348
452.35	76.735
452.56	73.658
452.77	93.032
452.98	91.918
453.19	89.783
453.40	94.226
453.61	93.557
453.82	100.259
454.03	89.448
454.25	90.581
454.46	98.398
454.67	85.646
454.88	70.928
455.09	79.663
455.30	83.475
455.51	82.896
455.72	85.294
455.93	91.558
456.14	89.406
456.35	81.859
456.56	92.574
456.78	83.492
456.99	89.552
457.20	87.597
457.41	87.202
457.62	76.809
457.83	82.418
458.04	83.507
458.25	88.705
458.46	82.779
458.67	78.189
458.88	82.961
459.09	79.534
459.30	83.222
459.51	82.927
459.73	87.872
459.94	77.485
460.15	85.174
460.36	86.583
460.57	81.908
460.78	86.703
460.99	82.707
461.20	79.590
461.41	80.188
461.62	84.047
461.83	87.153
462.04	82.519
462.25	85.777
462.46	93.545
462.67	91.738
462.88	93.934
463.09	97.331
463.30	88.655
463.51	93.097
463.72	91.908
463.93	87.596
464.15	89.670
464.36	87.795
464.57	85.462
464.78	80.690
464.99	80.292
465.20	88.257
465.41	92.226
465.62	87.885
465.83	90.486
466.04	94.409
466.25	99.303
466.46	99.098
466.67	93.491
466.88	92.482
467.09	85.607
467.30	87.057
467.51	85.743
467.72	91.446
467.93	87.923
468.14	86.264
468.35	83.698
468.56	84.091
468.77	93.567
468.98	86.172
469.19	89.968
469.40	92.472
469.61	88.391
469.82	90.172
470.03	83.129
470.24	87.907
470.45	81.938
470.66	85.600
470.87	91.094
471.08	90.367
471.29	95.912
471.50	87.933
471.71	85.966
471.92	88.421
472.13	87.022
472.34	91.329
472.55	87.017
472.76	90.468
472.97	87.195
473.18	88.334
473.39	86.979
473.60	91.215
473.81	85.274
474.01	88.198
474.22	88.703
474.43	89.788
474.64	88.751
474.85	86.039
475.06	89.612
475.27	91.370
475.48	85.648
475.69	84.581
475.90	86.813
476.11	88.124
476.32	91.848
476.53	91.011
476.74	92.052
476.95	92.243
477.16	93.165
477.37	92.854
477.58	89.886
477.79	90.356
478.00	87.810
478.21	89.446
478.41	89.744
478.62	91.696
478.83	92.831
479.04	97.972
479.25	95.494
479.46	95.351
479.67	90.891
479.88	90.790
480.09	95.981
480.30	97.608
480.51	95.944
480.72	95.396
480.93	91.131
481.14	91.596
481.34	89.217
481.55	90.115
481.76	89.430
481.97	91.538
482.18	94.737
482.39	90.406
482.60	90.752
482.81	91.004
483.02	93.752
483.23	88.849
483.44	90.468
483.65	90.735
483.85	91.218
484.06	90.173
484.27	94.001
484.48	92.842
484.69	94.316
484.90	97.989
485.11	94.638
485.32	97.706
485.53	98.851
485.73	93.640
485.94	91.874
486.15	88.962
486.36	90.361
486.57	87.783
486.78	89.712
486.99	87.963
487.20	86.599
487.41	86.479
487.61	91.189
487.82	94.798
488.03	93.325
488.24	90.029
488.45	89.984
488.66	86.794
488.87	85.765
489.08	87.744
489.28	87.642
489.49	85.326
489.70	83.095
489.91	82.717
490.12	80.826
490.33	81.617
490.54	83.813
490.74	85.615
490.95	89.246
491.16	83.391
491.37	80.878
491.58	76.575
491.79	75.376
492.00	71.394
492.20	65.996
492.41	62.606
492.62	58.431
492.83	50.788
493.04	49.740
493.25	41.285
493.45	37.202
493.66	30.750
493.87	25.901
494.08	20.520
494.29	18.419
494.50	13.395
494.70	11.757
494.91	10.523
495.12	8.118
495.33	6.471
495.54	5.701
495.75	3.118
495.95	2.760
496.16	2.054
496.37	2.137
496.58	0.285
496.79	1.610
496.99	2.001
497.20	2.258
497.41	1.735
497.62	2.094
497.83	0.849
498.04	0.343
498.24	2.094
498.45	2.053
498.66	1.426
498.87	1.672
499.08	1.714
499.28	1.122
499.49	1.480
499.70	1.510
499.91	0.404
500.12	1.298
500.32	0.470
500.53	1.129
500.74	1.807
500.95	0.888
501.15	0.903
501.36	1.782
501.57	1.106
501.78	0.620
501.99	1.664
502.19	0.813
502.40	1.244
502.61	0.119
502.82	0.904
503.02	1.254
503.23	0.608
503.44	1.399
503.65	0.699
503.86	1.614
504.06	0.815
504.27	1.705
504.48	1.246
504.69	0.421
504.89	0.744
505.10	0.950
505.31	0.978
505.52	1.003
505.72	1.321
505.93	2.364
506.14	0.741
506.35	1.591
506.55	1.497
506.76	0.985
506.97	1.141
507.18	0.440
507.38	0.919
507.59	0.714
507.80	0.155
508.01	1.264
508.21	0.550
508.42	0.995
508.63	0.050
508.84	1.097
509.04	0.236
509.25	0.375
509.46	0.681
509.67	0.000
509.87	1.016
510.08	1.017
510.29	0.648
510.49	0.494
510.70	1.177
510.91	1.183
511.12	0.281
511.32	0.609
511.53	1.273
511.74	0.963
511.94	1.361
512.15	-0.046
512.36	1.177
512.57	1.199
512.77	-0.060
512.98	0.519
513.19	0.512
513.39	0.453
513.60	1.212
513.81	-0.227
514.01	0.062
514.22	0.691
514.43	1.000
514.64	1.340
514.84	0.412
515.05	0.351
515.26	1.235
515.46	0.458
515.67	0.694
515.88	0.378
516.08	0.324
516.29	1.039
516.50	1.466
516.70	0.375
516.91	0.932
517.12	0.734
517.32	1.055
517.53	1.321
517.74	0.499
517.95	0.700
518.15	0.702
518.36	0.939
518.57	0.791
518.77	0.737
518.98	1.115
519.19	0.514
519.39	1.197
519.60	1.135
519.80	1.244
520.01	0.306
520.22	0.718
520.42	0.545
520.63	0.366
520.84	0.933
521.04	-0.227
521.25	0.383
521.46	0.694
521.66	0.970
521.87	0.361
522.08	0.703
522.28	0.768
522.49	0.851
522.70	0.590
522.90	0.065
523.11	0.726
523.31	1.014
523.52	0.674
523.73	0.766
523.93	1.341
524.14	0.354
524.35	0.809
524.55	1.233
524.76	0.156
524.97	1.304
525.17	1.085
525.38	1.119
525.58	1.132
525.79	0.431
526.00	0.687
526.20	0.941
526.41	1.290
526.61	1.006
526.82	1.129
527.03	0.798
527.23	0.888
527.44	0.589
527.64	0.839
527.85	0.528
528.06	0.799
528.26	0.742
528.47	1.401
528.68	0.636
528.88	0.501
529.09	0.704
529.29	1.106
529.50	0.694
529.70	1.032
529.91	0.654
530.12	1.014
530.32	1.182
530.53	0.926
530.73	0.967
530.94	0.427
531.15	0.513
531.35	1.505
531.56	0.921
531.76	1.102
531.97	1.254
532.17	1.083
532.38	1.475
532.59	1.480
532.79	1.020
533.00	1.650
533.20	1.374
533.41	0.455
533.61	1.409
533.82	1.530
534.03	1.737
534.23	0.955
534.44	1.370
534.64	1.393
534.85	1.566
535.05	1.408
535.26	0.756
535.46	1.075
535.67	1.612
535.88	1.523
536.08	1.630
536.29	1.303
536.49	1.288
536.70	1.505
536.90	1.507
537.11	1.935
537.31	1.059
537.52	1.613
537.72	2.027
537.93	1.408
538.13	2.095
538.34	2.067
538.55	1.899
538.75	2.153
538.96	1.903
539.16	1.907
539.37	2.864
539.57	2.400
539.78	2.262
539.98	2.458
540.19	2.871
540.39	3.518
540.60	3.747
540.80	4.481
541.01	5.687
541.21	6.608
541.42	7.692
541.62	8.486
541.83	10.388
542.03	11.939
542.24	13.484
542.44	15.502
542.65	17.566
542.85	19.795
543.06	21.277
543.26	23.703
543.47	25.441
543.67	27.974
543.88	29.998
544.08	33.407
544.29	33.018
544.49	35.565
544.70	37.314
544.90	39.865
545.11	44.146
545.31	46.551
545.52	47.912
545.72	50.366
545.93	52.000
546.13	53.524
546.34	55.424
546.54	57.941
546.75	63.703
546.95	69.216
547.15	75.047
547.36	77.088
547.56	78.275
547.77	81.828
547.97	84.095
548.18	85.179
548.38	84.012
548.59	85.626
548.79	88.273
549.00	90.410
549.20	90.734
549.41	92.953
549.61	91.327
549.81	90.576
550.02	87.770
550.22	85.331
550.43	84.757
550.63	87.733
550.84	86.750
551.04	88.785
551.25	88.117
551.45	89.320
551.65	89.058
551.86	89.342
552.06	91.015
552.27	91.194
552.47	92.679
552.68	94.492
552.88	96.537
553.08	97.272
553.29	97.198
553.49	98.345
553.70	98.244
553.90	97.758
554.11	98.599
554.31	98.583
554.51	98.754
554.72	98.639
554.92	97.619
555.13	98.715
555.33	97.734
555.53	99.095
555.74	97.714
555.94	94.603
556.15	94.454
556.35	92.374
556.56	94.502
556.76	93.641
556.96	95.619
557.17	95.574
557.37	95.498
557.58	94.915
557.78	95.760
557.98	98.104
558.19	99.832
558.39	98.693
558.59	95.353
558.80	94.353
559.00	93.797
559.21	94.037
559.41	92.170
559.61	92.061
559.82	91.512
560.02	90.500
560.23	89.444
560.43	88.659
560.63	89.176
560.84	90.876
561.04	95.321
561.24	96.018
561.45	98.480
561.65	99.197
561.85	98.415
562.06	95.953
562.26	94.616
562.47	94.660
562.67	93.786
562.87	92.761
563.08	90.605
563.28	91.500
563.48	90.635
563.69	90.660
563.89	92.037
564.09	92.696
564.30	92.902
564.50	92.844
564.70	91.451
564.91	90.559
565.11	89.559
565.31	88.822
565.52	86.319
565.72	87.807
565.92	85.932
566.13	85.796
566.33	88.409
566.53	89.201
566.74	90.974
566.94	92.580
567.14	94.348
567.35	94.466
567.55	94.245
567.75	92.165
567.96	91.258
568.16	90.520
568.36	87.855
568.57	88.776
568.77	91.870
568.97	91.828
569.18	92.904
569.38	92.198
569.58	91.627
569.79	91.469
569.99	92.931
570.19	91.823
570.39	93.638
570.60	93.279
570.80	92.512
571.00	92.307
571.21	91.966
571.41	94.125
571.61	94.074
571.82	91.192
572.02	92.875
572.22	92.181
572.42	92.018
572.63	92.502
572.83	94.244
573.03	92.690
573.24	92.030
573.44	92.101
573.64	92.840
573.84	94.341
574.05	95.692
574.25	96.749
574.45	97.199
574.66	97.983
574.86	96.726
575.06	98.475
575.26	96.697
575.47	97.158
575.67	93.804
575.87	91.757
576.07	90.940
576.28	90.915
576.48	89.444
576.68	91.103
576.88	92.845
577.09	95.296
577.29	95.806
577.49	94.943
577.69	94.428
577.90	93.572
578.10	95.503
578.30	94.220
578.50	91.638
578.71	91.114
578.91	92.377
579.11	91.934
579.31	96.002
579.52	98.556
579.72	100.553
579.92	96.648
580.12	95.173
580.33	91.722
580.53	90.895
580.73	88.354
580.93	88.252
581.13	90.390
581.34	90.709
581.54	92.563
581.74	97.719
581.94	97.087
582.15	95.963
582.35	95.166
582.55	90.915
582.75	90.996
582.95	91.456
583.16	90.576
583.36	89.412
583.56	89.501
583.76	90.098
583.96	90.376
584.17	91.723
584.37	91.789
584.57	94.247
584.77	91.730
584.97	91.151
585.18	87.655
585.38	84.801
585.58	84.551
585.78	87.475
585.98	92.480
586.19	97.024
586.39	99.251
586.59	101.231
586.79	95.928
586.99	94.365
587.20	91.358
587.40	89.098
587.60	88.072
587.80	90.095
588.00	89.647
588.20	90.490
588.41	92.560
588.61	94.042
588.81	92.282
589.01	89.757
589.21	88.922
589.41	90.070
589.62	89.456
589.82	88.333
590.02	88.129
590.22	88.990
590.42	89.873
590.62	91.331
590.83	90.743
591.03	90.642
591.23	92.367
591.43	93.120
591.63	93.358
591.83	93.732
592.03	90.806
592.24	90.194
592.44	89.122
592.64	88.787
592.84	86.933
593.04	85.959
593.24	86.790
593.44	89.675
593.65	90.672
593.85	92.620
594.05	93.481
594.25	95.188
594.45	95.079
594.65	93.957
594.85	92.633
595.06	87.943
595.26	85.543
595.46	84.317
595.66	83.331
595.86	84.601
596.06	88.249
596.26	89.646
596.46	92.166
596.66	93.678
596.87	94.554
597.07	94.500
597.27	94.802
597.47	93.558
597.67	92.544
597.87	88.972
598.07	88.185
598.27	88.129
598.47	82.696
598.67	80.995
598.88	76.720
599.08	71.912
599.28	69.047
599.48	64.483
599.68	62.393
599.88	58.162
600.08	55.271
600.28	52.542
600.48	49.761
600.68	46.307
600.88	43.072
601.09	37.895
601.29	34.461
601.49	30.817
601.69	25.214
601.89	22.801
602.09	19.733
602.29	16.723
602.49	14.103
602.69	11.034
602.89	8.908
603.09	7.280
603.29	5.993
603.49	4.516
603.69	3.882
603.90	3.058
604.10	2.649
604.30	2.175
604.50	1.931
604.70	1.796
604.90	1.337
605.10	1.580
605.30	1.293
605.50	1.210
605.70	0.906
605.90	1.356
606.10	0.909
606.30	1.175
606.50	1.027
606.70	0.902
606.90	1.023
607.10	0.912
607.30	0.768
607.50	1.031
607.70	0.957
607.90	0.867
608.10	0.945
608.30	0.879
608.50	0.906
608.70	0.694
608.90	0.826
609.11	0.776
609.31	0.919
609.51	0.678
609.71	0.719
609.91	0.582
610.11	0.604
610.31	0.618
610.51	0.937
610.71	1.141
610.91	1.103
611.11	1.258
611.31	1.350
611.51	1.627
611.71	1.263
611.91	0.912
612.11	1.047
612.31	1.179
612.51	1.141
612.71	0.950
612.91	0.980
613.11	0.945
613.31	0.613
613.51	0.788
613.71	0.724
613.91	0.892
614.11	0.888
614.31	0.785
614.50	0.765
614.70	0.675
614.90	0.832
615.10	0.502
615.30	0.911
615.50	0.815
615.70	0.557
615.90	0.736
616.10	0.659
616.30	0.793
616.50	0.560
616.70	0.615
616.90	0.417
617.10	0.545
617.30	0.426
617.50	0.637
617.70	0.493
617.90	0.409
618.10	0.820
618.30	0.632
618.50	0.452
618.70	0.722
618.90	0.643
619.10	0.662
619.30	0.565
619.49	0.492
619.69	0.774
619.89	0.438
620.09	0.571
620.29	0.704
620.49	0.623
620.69	0.384
620.89	0.592
621.09	0.610
621.29	0.804
621.49	0.592
621.69	0.703
621.89	0.399
622.09	0.604
622.29	0.656
622.48	0.606
622.68	0.534
622.88	0.536
623.08	0.710
623.28	0.329
623.48	0.548
623.68	0.567
623.88	0.528
624.08	0.637
624.28	0.723
624.48	0.622
624.67	0.604
624.87	0.719
625.07	0.717
625.27	0.646
625.47	0.666
625.67	0.422
625.87	0.790
626.07	0.693
626.27	0.542
626.47	0.950
626.66	0.662
626.86	0.566
627.06	0.452
627.26	0.447
627.46	0.578
627.66	0.825
627.86	0.632
628.06	0.697
628.25	0.809
628.45	0.660
628.65	0.670
628.85	0.837
629.05	0.826
629.25	0.757
629.45	0.857
629.65	0.893
629.84	0.687
630.04	0.843
630.24	0.694
630.44	1.048
630.64	0.689
630.84	0.615
631.04	0.981
631.23	0.845
631.43	0.869
631.63	0.788
631.83	0.910
632.03	0.983
632.23	0.740
632.42	0.939
632.62	0.831
632.82	0.837
633.02	0.897
633.22	0.708
633.42	1.182
633.62	0.999
633.81	0.819
634.01	0.993
634.21	0.971
634.41	1.197
634.61	0.873
634.80	1.014
635.00	1.033
635.20	1.316
635.40	1.251
635.60	1.060
635.80	1.095
635.99	1.426
636.19	1.194
636.39	0.942
636.59	1.367
636.79	1.477
636.98	1.144
637.18	1.560
637.38	1.455
637.58	1.527
637.78	1.651
637.97	1.654
638.17	2.123
638.37	2.286
638.57	2.433
638.77	2.718
638.96	3.576
639.16	4.188
639.36	4.668
639.56	5.625
639.76	6.588
639.95	7.935
640.15	8.805
640.35	10.123
640.55	10.998
640.75	12.315
640.94	14.243
641.14	15.008
641.34	16.787
641.54	18.803
641.73	20.638
641.93	22.435
642.13	23.839
642.33	25.030
642.53	26.913
642.72	29.109
642.92	31.590
643.12	34.798
643.32	37.861
643.51	39.926
643.71	41.763
643.91	44.189
644.11	46.321
644.30	48.631
644.50	49.996
644.70	51.187
644.90	52.344
645.09	54.514
645.29	56.980
645.49	58.407
645.69	60.070
645.88	62.716
646.08	64.670
646.28	67.056
646.48	67.747
646.67	69.023
646.87	70.816
647.07	74.021
647.26	77.848
647.46	79.769
647.66	80.338
647.86	83.718
648.05	84.437
648.25	86.337
648.45	87.535
648.65	89.927
648.84	90.363
649.04	91.870
649.24	92.941
649.43	91.519
649.63	92.576
649.83	90.592
650.03	90.317
650.22	90.622
650.42	92.147
650.62	93.354
650.81	92.037
651.01	91.500
651.21	89.763
651.40	89.576
651.60	87.448
651.80	88.088
652.00	88.159
652.19	88.363
652.39	87.247
652.59	87.286
652.78	87.732
652.98	87.615
653.18	88.056
653.37	86.652
653.57	87.253
653.77	87.651
653.96	91.043
654.16	93.041
654.36	94.588
654.55	94.216
654.75	93.218
654.95	91.557
655.14	89.035
655.34	87.613
655.54	87.309
655.73	87.353
655.93	89.447
656.13	89.220
656.32	90.884
656.52	91.682
656.72	90.430
656.91	91.493
657.11	90.521
657.31	90.714
657.50	92.039
657.70	93.453
657.90	94.404
658.09	95.145
658.29	96.032
658.49	96.026
658.68	94.877
658.88	92.233
659.07	93.163
659.27	95.246
659.47	93.901
659.66	92.693
659.86	90.988
660.06	92.029
660.25	91.095
660.45	91.871
660.64	92.577
660.84	92.435
661.04	93.978
661.23	92.979
661.43	93.239
661.63	94.981
661.82	93.921
662.02	94.760
662.21	94.331
662.41	92.915
662.61	90.398
662.80	92.241
663.00	91.289
663.19	89.868
663.39	90.622
663.59	91.050
663.78	90.492
663.98	91.281
664.17	93.497
664.37	92.870
664.57	90.011
664.76	89.809
664.96	88.929
665.15	88.226
665.35	86.928
665.55	86.056
665.74	86.016
665.94	85.501
666.13	86.037
666.33	86.140
666.53	86.839
666.72	87.904
666.92	89.808
667.11	93.264
667.31	94.431
667.50	96.082
667.70	95.447
667.90	97.308
668.09	95.916
668.29	95.945
668.48	95.256
668.68	95.088
668.87	94.347
669.07	92.974
669.26	92.009
669.46	91.488
669.66	90.836
669.85	90.774
670.05	90.026
670.24	89.045
670.44	88.288
670.63	88.997
670.83	89.740
671.02	89.780
671.22	90.438
671.42	92.084
671.61	93.536
671.81	95.300
672.00	95.920
672.20	93.919
672.39	92.849
672.59	91.974
672.78	92.747
672.98	91.616
673.17	92.414
673.37	93.172
673.56	93.122
673.76	94.131
673.95	95.817
674.15	94.534
674.34	95.772
674.54	93.903
674.73	88.804
674.93	88.154
675.13	87.368
675.32	89.847
675.52	92.103
675.71	94.507
675.91	94.422
676.10	95.500
676.30	91.871
676.49	92.261
676.69	91.271
676.88	92.463
677.08	92.937
677.27	92.437
677.47	92.847
677.66	92.108
677.86	90.205
678.05	87.289
678.24	86.451
678.44	84.146
678.63	83.011
678.83	83.690
679.02	84.864
679.22	86.839
679.41	88.355
679.61	91.419
679.80	93.923
680.00	95.439
680.19	94.231
680.39	93.739
680.58	93.295
680.78	93.033
680.97	91.338
681.17	91.564
681.36	90.823
681.56	90.381
681.75	92.729
681.94	93.733
682.14	95.608
682.33	94.554
682.53	95.626
682.72	93.673
682.92	94.093
683.11	92.528
683.31	91.946
683.50	91.383
683.69	93.903
683.89	94.809
684.08	94.241
684.28	93.427
684.47	92.340
684.67	91.502
684.86	92.802
685.06	92.326
685.25	92.490
685.44	92.192
685.64	91.119
685.83	89.907
686.03	88.932
686.22	88.126
686.42	90.420
686.61	90.453
686.80	90.891
687.00	90.902
687.19	90.148
687.39	89.786
687.58	88.678
687.77	87.415
687.97	85.092
688.16	84.919
688.36	84.898
688.55	85.692
688.74	85.839
688.94	87.359
689.13	87.935
689.33	86.493
689.52	85.557
689.71	85.350
689.91	84.123
690.10	83.746
690.30	84.116
690.49	86.608
690.68	89.550
690.88	91.654
691.07	93.685
691.27	95.156
691.46	96.302
691.65	99.817
691.85	101.122
692.04	102.650
692.23	103.372
692.43	103.329
692.62	100.225
692.82	97.508
693.01	92.833
693.20	88.589
693.40	85.931
693.59	84.390
693.78	83.391
693.98	81.390
694.17	81.487
694.36	80.036
694.56	80.907
694.75	80.883
694.94	79.600
695.14	79.641
695.33	78.808
695.53	78.426
695.72	77.569
695.91	76.131
696.11	74.503
696.30	70.990
696.49	69.091
696.69	64.818
696.88	62.260
697.07	59.568
697.27	56.448
697.46	54.187
697.65	49.831
697.85	46.011
698.04	42.668
698.23	40.571
698.43	38.317
698.62	36.133
698.81	33.062
699.01	30.633
699.20	27.975
699.39	26.539
699.58	24.524
699.78	22.297
699.97	19.607
700.16	17.183
700.36	14.714
700.55	13.242
700.74	11.564
700.94	10.269
701.13	8.861
701.32	7.477
701.52	6.465
701.71	5.163
701.90	4.287
702.09	3.914
702.29	3.145
702.48	2.877
702.67	2.598
702.87	2.035
703.06	1.697
703.25	1.613
703.44	1.383
703.64	0.923
703.83	1.019
704.02	1.209
704.22	0.802
704.41	0.755
704.60	0.924
704.79	0.777
704.99	0.681
705.18	0.712
705.37	0.787
705.56	0.676
705.76	0.629
705.95	0.620
706.14	0.405
706.33	0.499
706.53	0.570
706.72	0.521
706.91	0.416
707.11	0.677
707.30	0.509
707.49	0.653
707.68	0.323
707.88	0.567
708.07	0.439
708.26	0.429
708.45	0.459
708.64	0.451
708.84	0.498
709.03	0.625
709.22	0.507
709.41	0.321
709.61	0.354
709.80	0.130
709.99	0.221
710.18	0.499
710.38	0.143
710.57	0.344
710.76	0.421
710.95	0.510
711.14	0.331
711.34	0.313
711.53	0.258
711.72	0.233
711.91	0.112
712.11	0.476
712.30	0.423
712.49	0.209
712.68	0.384
712.87	0.225
713.07	0.368
713.26	0.185
713.45	0.223
713.64	0.314
713.83	0.248
714.03	0.233
714.22	0.112
714.41	0.177
714.60	0.082
714.79	0.116
714.99	0.367
715.18	0.266
715.37	0.197
715.56	0.505
715.75	0.339
715.94	0.529
716.14	0.238
716.33	0.189
716.52	0.118
716.71	0.315
716.90	0.340
717.10	0.239
717.29	0.250
717.48	0.108
717.67	0.330
717.86	0.257
718.05	0.181
718.24	0.168
718.44	0.173
718.63	0.097
718.82	0.408
719.01	0.009
719.20	0.102
719.39	0.208
719.59	-0.090
719.78	0.245
719.97	0.120
720.16	0.075
720.35	0.103
720.54	0.330
720.73	0.033
720.93	0.416
721.12	0.242
721.31	0.447
721.50	0.168
721.69	0.052
721.88	-0.053
722.07	0.168
722.27	0.122
722.46	-0.062
722.65	0.057
722.84	0.182
723.03	0.459
723.22	0.066
723.41	0.176
723.60	0.223
723.79	0.308
723.99	0.295
724.18	0.242
724.37	0.221
724.56	0.269
724.75	0.265
724.94	0.306
725.13	0.381
725.32	0.171
725.51	0.270
725.71	0.047
725.90	0.219
726.09	0.146
726.28	0.313
726.47	0.158
726.66	0.355
726.85	0.123
727.04	0.139
727.23	0.145
727.42	0.274
727.61	0.044
727.81	0.336
728.00	0.101
728.19	0.029
728.38	0.024
728.57	0.306
728.76	-0.034
728.95	0.278
729.14	0.300
729.33	0.090
729.52	0.427
729.71	0.020
729.90	0.151
730.09	0.000
730.28	-0.020
730.48	0.229
730.67	0.086
730.86	0.153
731.05	0.094
731.24	0.048
731.43	0.113
731.62	0.130
731.81	0.130
732.00	0.178
732.19	0.005
732.38	0.123
732.57	0.074
732.76	0.132
732.95	0.078
733.14	0.105
733.33	0.145
733.52	0.221
733.71	0.309
733.90	-0.073
734.09	0.221
734.28	-0.031
734.47	0.031
734.66	0.088
734.85	0.026
735.04	-0.133
735.23	0.132
735.42	0.089
735.61	0.321
735.81	0.147
736.00	0.142
736.19	-0.149
736.38	0.108
736.57	0.220
736.76	-0.011
736.95	0.027
737.14	0.011
737.33	0.360
737.52	0.067
737.71	0.005
737.90	0.119
738.09	-0.064
738.28	-0.011
738.47	0.102
738.66	0.143
738.85	-0.203
739.04	0.064
739.22	0.153
739.41	0.070
739.60	0.265
739.79	0.145
739.98	0.011
740.17	0.164
740.36	0.140
740.55	0.144
740.74	0.099
740.93	0.066
741.12	-0.073
741.31	0.153
741.50	0.051
741.69	0.000
741.88	0.163
742.07	-0.103
742.26	0.000
742.45	0.023
742.64	0.202
742.83	0.384
743.02	-0.112
743.21	0.149
743.40	0.150
743.59	0.050
743.78	0.120
743.97	-0.232
744.16	0.159
744.34	0.314
744.53	0.214
744.72	0.200
744.91	0.467
745.10	-0.097
745.29	0.276
745.48	0.128
745.67	-0.108
745.86	0.397
746.05	0.121
746.24	0.101
746.43	0.114
746.62	0.317
746.81	-0.077
747.00	0.000
747.18	0.000
747.37	0.205
747.56	0.262
747.75	0.239
747.94	-0.158
748.13	0.438
748.32	0.205
748.51	0.117
748.70	0.021
748.89	0.175
749.08	-0.021
749.26	-0.055
749.45	-0.205
749.64	0.049
749.83	-0.099
750.02	-0.144
750.21	0.043
750.40	0.299
750.59	0.000
750.78	0.111
750.96	0.090
751.15	0.405
751.34	0.134
751.53	-0.144
751.72	-0.038
751.91	0.000
752.10	0.030
752.29	0.536
752.47	-0.045
752.66	0.426
752.85	-0.115
753.04	0.095
753.23	0.056
753.42	0.024
753.61	0.072
753.80	0.056
753.98	0.239
754.17	0.153
754.36	0.118
754.55	-0.050
754.74	-0.060
754.93	-0.017
755.12	0.114
755.30	0.384
755.49	-0.027
755.68	0.325
755.87	-0.124
756.06	0.197
756.25	0.044
756.43	0.255
756.62	0.130
756.81	0.389
757.00	0.121
757.19	0.106
757.38	-0.054
757.56	0.121
757.75	0.235
757.94	0.156
758.13	0.531
758.32	0.788
758.51	0.524
758.69	-0.079
758.88	0.149
759.07	-0.071
759.26	-0.132
759.45	0.062
759.63	0.610
759.82	0.306
760.01	0.043
760.20	-0.327
760.39	0.383
760.57	0.011
760.76	0.333
760.95	0.531
761.14	-0.169
761.33	-0.217
761.51	0.591
761.70	-0.058
761.89	0.103
762.08	0.555
762.27	0.455
762.45	0.105
762.64	-0.345
762.83	0.588
763.02	-0.149
763.21	0.429
763.39	0.738
763.58	-0.561
763.77	0.128
763.96	0.258
764.14	0.548
764.33	-0.143
764.52	0.371
764.71	0.307
764.89	0.667
765.08	0.378
765.27	-0.294
765.46	0.187
765.65	0.451
765.83	0.095
766.02	-0.122
766.21	0.067
766.40	-0.148
766.58	0.548
766.77	0.484
766.96	0.304
767.15	0.074
767.33	-0.168
767.52	0.618
767.71	0.297
767.90	-0.078
768.08	0.221
768.27	0.433
768.46	-0.129
768.64	-0.227
768.83	-0.033
769.02	-0.119
769.21	-0.421
769.39	-0.238
769.58	-0.137
769.77	0.291
769.96	0.802
770.14	0.358
770.33	0.439
770.52	0.626
770.70	-0.222
770.89	0.017
771.08	0.017
771.27	0.739
771.45	0.531
771.64	0.242
771.83	0.255
772.01	-0.052
772.20	0.676
772.39	0.245
772.57	-0.344
772.76	-0.512
772.95	0.529
773.14	0.390
773.32	-0.148
773.51	-0.303
773.70	0.151
773.88	0.271
774.07	-0.311
774.26	0.550
774.44	0.382
774.63	0.555
774.82	0.176
775.00	1.037
775.19	0.513
775.38	0.584
775.56	-0.191
775.75	0.230
775.94	-0.197
776.12	0.176
776.31	-0.120
776.50	0.679
776.68	0.723
776.87	1.127
777.06	-0.711
777.24	0.041
777.43	-0.226
777.62	0.267
777.80	-0.327
777.99	-0.704
778.18	1.126
778.36	0.042
778.55	-0.021
778.74	0.165
778.92	-0.228
779.11	0.498
779.29	0.143
779.48	0.741
779.67	-0.513
779.85	-0.282
780.04	-0.307
780.23	0.800
780.41	-0.081
780.60	0.000
780.79	0.697
780.97	0.200
781.16	0.433
781.34	-0.557
781.53	-0.518
781.72	0.509
781.90	0.682
782.09	0.097
782.28	1.069
782.46	1.079
782.65	-0.294
782.83	0.786
783.02	-0.642
783.21	0.277
783.39	0.654
783.58	-0.675
783.76	0.191
783.95	-0.326
784.14	0.634
784.32	-0.221
784.51	-0.073
784.69	0.611
784.88	0.636
785.06	-0.669
785.25	0.053
785.44	-0.407
785.62	0.053
785.81	1.031
785.99	-0.072
786.18	-0.296
786.37	-0.334
786.55	0.612
786.74	-0.133
786.92	-0.198
787.11	0.158
787.29	-0.374
787.48	-0.099
787.67	0.039
787.85	0.409
788.04	-0.426
788.22	-0.116
788.41	0.336
788.59	0.414
788.78	-0.094
788.96	-0.462
789.15	-0.328
789.34	-0.440
789.52	-0.636
789.71	0.759
789.89	-0.076
790.08	0.404
790.26	-0.361
790.45	-0.318
790.63	-0.732
790.82	-0.123
791.00	0.525
791.19	0.301
791.38	0.271
791.56	0.143
791.75	-0.459
791.93	0.419
792.12	0.225
792.30	-0.506
792.49	-0.566
792.67	0.293
792.86	-0.318
793.04	0.898
793.23	-1.019
793.41	-0.121
793.60	0.520
793.78	0.414
793.97	0.261
794.15	0.400
794.34	0.686
794.52	-0.398
794.71	-0.409
794.89	0.117
795.08	-0.309
795.26	-0.325
795.45	0.268
795.63	0.140
795.82	0.596
796.00	-0.341
796.19	0.148
796.37	-0.449
796.56	-0.163
796.74	0.711
796.93	0.818
797.11	-0.421
797.30	0.590
797.48	-0.072
797.67	0.144
797.85	-0.235
798.04	1.194
798.22	-0.495
798.41	0.153
798.59	-0.077
798.77	-0.245
798.96	0.046
799.14	-0.200
799.33	-0.227
799.51	-0.151
799.70	0.358
799.88	0.151
800.07	-0.731
800.25	-0.384
800.44	-0.103
800.62	-0.251
800.80	0.249
800.99	-0.148
801.17	-0.192
801.36	0.533
801.54	-0.221
801.73	-0.573
801.91	-0.117
802.10	-0.623
802.28	0.422
802.46	1.021
802.65	0.029
802.83	-0.520
803.02	0.429
803.20	-0.085
803.39	-0.347
803.57	-0.194
803.75	0.105
803.94	-0.091
804.12	0.202
804.31	0.312
804.49	0.048
804.67	0.098
804.86	0.491
805.04	-0.051
805.23	1.088
805.41	0.000
805.59	0.276
805.78	0.016
805.96	0.559
806.15	0.507
806.33	0.293
806.51	-0.321
806.70	0.167
806.88	-0.442
807.07	0.618
807.25	0.680
807.43	0.032
807.62	0.271
807.80	-0.271
807.99	-0.156
808.17	-0.217
808.35	-0.488
808.54	0.411
808.72	0.499
808.90	0.346
809.09	-0.090
809.27	-0.936
809.46	-0.109
809.64	-0.091
809.82	-0.464
810.01	-0.046
810.19	-0.123
810.37	0.090
810.56	-0.462
810.74	0.210
810.92	-0.285
811.11	-0.330
811.29	0.000
811.48	-0.372
811.66	0.268
811.84	0.757
812.03	-0.066
812.21	0.098
812.39	0.129
812.58	0.033
812.76	-0.082
812.94	0.193
813.13	0.433
813.31	0.113
813.49	0.347
813.68	0.374
813.86	0.307
814.04	-0.030
814.23	0.813
814.41	-0.665
814.59	-0.193
814.78	0.059
814.96	0.206
815.14	0.563
815.33	0.410
815.51	0.062
815.69	0.980
815.87	-0.464
816.06	0.275
816.24	-0.528
816.42	0.569
816.61	0.551
816.79	-0.035
816.97	-1.106
817.16	0.000
817.34	1.014
817.52	-0.323
817.70	-0.225
817.89	-0.167
818.07	-0.038
818.25	0.569
818.44	0.290
818.62	0.036
818.80	-0.071
818.98	0.569
819.17	0.217
819.35	0.316
819.53	0.240
819.72	-0.358
819.90	0.385
820.08	-0.425
820.26	0.540
820.45	-0.398
820.63	-0.278
820.81	-0.278
820.99	0.662
821.18	0.709
821.36	0.802
821.54	-0.366
821.73	-0.484
821.91	0.919
822.09	-0.558
822.27	0.339
822.46	0.062
822.64	0.425
822.82	0.206
823.00	-0.233
823.19	1.644
823.37	-0.667
823.55	0.065
823.73	0.334
823.91	0.295
824.10	0.483
824.28	0.234
824.46	0.195
824.64	0.738
824.83	-0.270
825.01	0.693
825.19	0.283
825.37	0.602
825.56	1.149
825.74	-0.532
825.92	-0.384
826.10	-0.469
826.28	-0.174
826.47	1.553
826.65	-0.195
826.83	-1.899
827.01	1.330
827.19	1.694
827.38	-0.487
827.56	0.502
827.74	0.968
827.92	0.676
828.10	0.095
828.29	-0.690
828.47	1.429
828.65	0.324
828.83	1.178
829.01	-0.395
829.20	0.662
829.38	-0.517
829.56	0.233
829.74	0.696
829.92	1.544
830.10	0.391
830.29	-0.709
830.47	0.727
830.65	-0.026
830.83	0.335
831.01	0.543
831.20	1.496
831.38	-0.664
831.56	-0.602
831.74	-0.077
831.92	0.180
832.10	-0.184
832.29	0.676
832.47	1.291
832.65	0.807
832.83	-0.482
833.01	0.750
833.19	-0.819
833.37	-0.027
833.56	0.364
833.74	0.501
833.92	1.278
834.10	-0.057
834.28	1.741
834.46	0.612
834.64	0.166
834.83	0.782
835.01	0.575
835.19	0.995
835.37	0.139
835.55	-0.522
835.73	0.601
835.91	0.028
836.09	0.630
836.28	1.317
836.46	1.291
836.64	-1.734
836.82	0.755
837.00	0.337
837.18	0.115
837.36	0.059
837.54	0.267
837.72	0.719
837.91	0.179
838.09	0.031
838.27	-0.502
838.45	-1.267
838.63	0.876
838.81	0.724
838.99	-1.270
839.17	1.729
839.35	1.348
839.53	0.880
839.72	-0.897
839.90	1.369
840.08	1.009
840.26	0.813
840.44	-0.940
840.62	0.624
840.80	-0.033
840.98	0.102
841.16	0.233
841.34	1.473
841.52	0.068
841.70	1.995
841.89	2.098
842.07	-0.343
842.25	0.919
842.43	1.376
842.61	0.657
842.79	0.448
842.97	2.074
843.15	0.034
843.33	0.481
843.51	2.547
843.69	-0.174
843.87	1.754
844.05	2.591
844.23	0.914
844.41	2.929
844.59	2.472
844.77	0.302
844.95	2.294
845.13	1.958
845.31	1.340
845.50	2.649
845.68	1.480
845.86	0.466
846.04	-0.803
846.22	0.911
846.40	2.653
846.58	1.504
846.76	1.642
846.94	1.238
847.12	0.963
847.30	-0.857
847.48	1.244
847.66	0.730
847.84	0.909
848.02	0.483
848.20	1.739
848.38	4.029
848.56	1.769
848.74	-1.063
848.92	1.392
849.10	2.080
849.28	2.241
849.46	-0.205
849.64	2.228
849.82	1.836
850.00	0.791
850.18	-0.663
850.36	0.527
850.54	1.357
850.72	1.725
850.90	1.337
851.08	1.202
851.26	1.788
851.44	3.714
851.62	2.321
851.80	2.522
851.98	3.421
852.16	3.973
852.34	3.542
852.52	3.205
852.70	3.523
852.87	5.345
853.05	2.373
853.23	2.920
853.41	3.377
853.59	5.604
853.77	3.738
853.95	4.545
854.13	4.990
854.31	6.946
854.49	4.818
854.67	4.959
854.85	6.267
855.03	7.902
855.21	7.275
855.39	6.823
855.57	8.277
855.75	9.049
855.93	9.667
856.11	5.843
856.28	10.758
856.46	11.204
856.64	12.403
856.82	12.870
857.00	11.993
857.18	12.843
857.36	10.669
857.54	13.869
857.72	14.415
857.90	13.113
858.08	14.965
858.26	13.086
858.44	13.065
858.61	12.435
858.79	11.755
858.97	15.021
859.15	14.417
859.33	13.305
859.51	14.155
859.69	15.347
859.87	15.396
860.05	15.689
860.23	16.984
860.40	18.028
860.58	14.364
860.76	18.480
860.94	18.328
861.12	17.905
861.30	20.671
861.48	19.902
861.66	22.214
861.84	22.537
862.01	25.010
862.19	24.184
862.37	26.669
862.55	24.337
862.73	27.474
862.91	26.551
863.09	28.037
863.27	28.158
863.44	28.376
863.62	28.026
863.80	29.655
863.98	29.000
864.16	29.325
864.34	27.627
864.52	30.168
864.69	29.508
864.87	27.372
865.05	27.539
865.23	27.990
865.41	27.361
865.59	26.318
865.76	22.701
865.94	25.346
866.12	24.355
866.30	22.013
866.48	21.854
866.66	20.911
866.83	22.712
867.01	20.974
867.19	19.236
867.37	20.446
867.55	20.048
867.73	17.251
867.90	16.966
868.08	17.290
868.26	18.771
868.44	17.635
868.62	18.481
868.79	17.265
868.97	20.255
869.15	21.774
869.33	24.104
869.51	24.652
869.69	25.436
869.86	24.857
870.04	27.426
870.22	26.935
870.40	29.905
870.57	28.394
870.75	31.257
870.93	33.979
871.11	34.280
871.29	35.186
871.46	31.839
871.64	35.955
871.82	34.158
872.00	34.071
872.18	36.743
872.35	36.046
872.53	34.370
872.71	33.681
872.89	32.480
873.06	33.586
873.24	32.161
873.42	32.439
873.60	32.649
873.77	31.314
873.95	32.445
874.13	29.204
874.31	29.138
874.49	28.779
874.66	25.461
874.84	27.416
875.02	23.724
875.20	26.434
875.37	23.633
875.55	24.895
875.73	25.758
875.91	26.224
876.08	24.665
876.26	25.026
876.44	27.815
876.61	24.035
876.79	23.135
876.97	24.461
877.15	24.510
877.32	24.654
877.50	22.833
877.68	22.317
877.86	23.368
878.03	22.218
878.21	21.993
878.39	23.593
878.56	23.590
878.74	23.100
878.92	23.043
879.10	22.947
879.27	21.336
879.45	21.769
879.63	22.837
879.80	22.079
879.98	23.572
880.16	22.574
880.34	21.154
880.51	21.334
880.69	21.409
880.87	21.548
881.04	20.638
881.22	19.632
881.40	19.125
881.57	19.670
881.75	17.632
881.93	18.095
882.10	16.704
882.28	16.286
882.46	15.661
882.63	14.085
882.81	15.162
882.99	14.532
883.16	13.985
883.34	12.852
883.52	13.673
883.69	11.454
883.87	12.550
884.05	11.877
884.22	9.297
884.40	11.591
884.58	11.139
884.75	12.135
884.93	12.617
885.11	12.174
885.28	11.982
885.46	12.237
885.64	11.797
885.81	11.108
885.99	13.183
886.17	11.296
886.34	13.385
886.52	13.040
886.70	14.437
886.87	13.585
887.05	13.507
887.22	14.320
887.40	13.641
887.58	13.790
887.75	15.413
887.93	15.532
888.11	15.026
888.28	14.792
888.46	16.963
888.63	15.002
888.81	16.344
888.99	15.726
889.16	17.350
889.34	19.596
889.51	17.308
889.69	19.559
889.87	18.196
890.04	19.796
890.22	20.459
890.39	20.580
890.57	18.725
890.75	19.614
890.92	19.829
891.10	20.955
891.27	19.503
891.45	20.883
891.63	22.534
891.80	22.302
891.98	21.999
892.15	22.077
892.33	21.944
892.51	21.514
892.68	22.612
892.86	21.806
893.03	21.386
893.21	21.457
893.38	21.741
893.56	22.167
893.74	22.593
893.91	24.494
894.09	23.182
894.26	20.945
894.44	22.072
894.61	21.047
894.79	21.635
894.96	20.711
895.14	18.456
895.32	19.883
895.49	22.330
895.67	17.844
895.84	19.283
896.02	20.480
896.19	19.953
896.37	20.253
896.54	20.328
896.72	20.233
896.89	18.179
897.07	20.666
897.25	19.663
897.42	17.944
897.60	19.773
897.77	21.473
897.95	21.256
898.12	21.322
898.30	20.949
898.47	22.326
898.65	22.932
898.82	22.096
899.00	24.137
899.17	22.609
899.35	24.528
899.52	24.415
899.70	23.652
899.87	22.709
900.05	25.471
900.22	24.760
900.40	25.620
900.57	26.170
900.75	29.864
900.92	31.353
901.10	28.868
901.27	33.139
901.45	32.528
901.62	31.963
901.80	32.691
901.97	31.951
902.15	34.865
902.32	35.512
902.50	38.385
902.67	38.914
902.85	36.692
903.02	40.445
903.20	39.622
903.37	44.579
903.54	43.694
903.72	41.400
903.89	45.158
904.07	45.825
904.24	46.553
904.42	48.115
904.59	45.896
904.77	46.816
904.94	45.897
905.12	46.442
905.29	45.021
905.47	45.438
905.64	46.785
905.81	46.263
905.99	54.255
906.16	53.271
906.34	53.336
906.51	56.298
906.69	57.063
906.86	58.444
907.03	60.670
907.21	61.436
907.38	60.961
907.56	55.277
907.73	59.824
907.91	62.700
908.08	60.663
908.25	60.297
908.43	62.988
908.60	62.952
908.78	63.803
908.95	62.107
909.13	61.575
909.30	63.153
909.47	61.111
909.65	60.093
909.82	58.743
910.00	61.864
910.17	60.375
910.34	59.727
910.52	61.642
910.69	58.963
910.87	63.663
911.04	62.206
911.21	59.782
911.39	60.363
911.56	61.701
911.73	58.829
911.91	62.927
912.08	56.959
912.26	58.451
912.43	61.599
912.60	60.231
912.78	66.354
912.95	65.153
913.13	65.151
913.30	63.941
913.47	67.455
913.65	67.332
913.82	67.156
913.99	60.076
914.17	63.716
914.34	61.394
914.51	62.190
914.69	58.895
914.86	59.930
915.03	61.031
915.21	60.407
915.38	64.503
915.56	70.253
915.73	68.132
915.90	65.168
916.08	69.100
916.25	70.816
916.42	64.501
916.60	68.562
916.77	67.896
916.94	67.670
917.12	66.703
917.29	65.928
917.46	63.951
917.64	66.226
917.81	66.045
917.98	63.520
918.16	63.921
918.33	64.483
918.50	63.394
918.67	61.848
918.85	67.031
919.02	65.300
919.19	66.685
919.37	66.048
919.54	67.722
919.71	65.528
919.89	71.033
920.06	69.156
920.23	68.661
920.41	64.970
920.58	71.299
920.75	68.309
920.92	65.653
921.10	70.345
921.27	62.831
921.44	69.829
921.62	67.767
921.79	67.480
921.96	70.660
922.13	66.788
922.31	65.119
922.48	65.736
922.65	66.056
922.82	67.799
923.00	62.015
923.17	66.855
923.34	72.803
923.52	69.767
923.69	69.524
923.86	66.479
924.03	69.276
924.21	65.019
924.38	67.446
924.55	66.667
924.72	66.777
924.90	71.182
925.07	71.689
925.24	71.004
925.41	75.712
925.59	74.187
925.76	71.271
925.93	76.250
926.10	71.845
926.28	72.135
926.45	71.974
926.62	67.459
926.79	69.408
926.96	66.011
927.14	69.388
927.31	71.884
927.48	64.846
927.65	68.247
927.83	69.260
928.00	68.040
928.17	68.699
928.34	64.734
928.51	66.642
928.69	66.760
928.86	71.141
929.03	69.181
929.20	67.383
929.37	61.728
929.55	70.904
929.72	71.662
929.89	69.702
930.06	74.276
930.23	70.978
930.41	73.479
930.58	74.829
930.75	71.714
930.92	67.413
931.09	70.449
931.27	68.672
931.44	67.155
931.61	63.528
931.78	68.385
931.95	64.363
932.12	67.920
932.30	63.080
932.47	63.969
932.64	64.946
932.81	63.835
932.98	64.611
933.16	61.378
933.33	64.716
933.50	62.044
933.67	57.033
933.84	57.957
934.01	58.135
934.18	54.643
934.36	56.749
934.53	56.762
934.70	58.285
934.87	49.668
935.04	57.711
935.21	56.764
935.38	51.821
935.56	52.813
935.73	49.453
935.90	52.391
936.07	54.592
936.24	56.476
936.41	53.626
936.58	59.047
936.76	57.421
936.93	60.578
937.10	57.461
937.27	58.389
937.44	55.038
937.61	62.500
937.78	54.162
937.95	58.129
938.13	58.196
938.30	61.648
938.47	48.875
938.64	55.281
938.81	49.893
938.98	51.531
939.15	52.222
939.32	54.925
939.49	45.806
939.66	54.121
939.84	52.618
940.01	57.907
940.18	53.770
940.35	52.734
940.52	54.119
940.69	53.979
940.86	48.045
941.03	47.318
941.20	49.449
941.37	51.479
941.54	51.490
941.71	51.264
941.89	49.710
942.06	50.174
942.23	46.601
942.40	55.517
942.57	52.310
942.74	51.625
942.91	49.682
943.08	54.949
943.25	55.485
943.42	53.792
943.59	49.672
943.76	51.012
943.93	47.613
944.10	48.810
944.27	49.464
944.44	50.000
944.61	53.095
944.79	50.141
944.96	49.926
945.13	49.153
945.30	50.542
945.47	49.589
945.64	49.934
945.81	44.321
945.98	49.931
946.15	44.772
946.32	42.420
946.49	44.992
946.66	46.544
946.83	36.676
947.00	38.915
947.17	36.780
947.34	47.889
947.51	41.960
947.68	43.533
947.85	43.994
948.02	38.750
948.19	33.227
948.36	43.824
948.53	39.446
948.70	41.398
948.87	44.171
949.04	36.795
949.21	35.974
949.38	37.245
949.55	33.625
949.72	34.267
949.89	27.656
950.06	37.566
950.23	40.236
950.40	25.207
950.57	34.234
950.74	32.862
950.91	38.787
951.08	39.024
951.25	36.692
951.42	37.807
951.59	40.506
951.76	31.313
951.93	39.029
952.10	40.399
952.27	23.246
952.44	38.571
952.61	33.978
952.77	34.535
952.94	27.846
953.11	30.667
953.28	35.849
953.45	41.057
953.62	32.486
953.79	40.000
953.96	28.711
954.13	39.655
954.30	38.911
954.47	38.761
954.64	44.423
954.81	44.064
954.98	39.963
955.15	41.600
955.32	40.598
955.49	42.661
955.65	39.800
955.82	43.788
955.99	40.285
956.16	36.686
956.33	53.280
956.50	47.082
956.67	50.101
956.84	37.453
957.01	51.324
957.18	44.732
957.35	45.565
957.52	51.406
957.68	60.045
957.85	61.915
958.02	44.361
958.19	55.854
958.36	59.953
958.53	60.677
958.70	49.465
958.87	54.362
959.04	57.179
959.21	43.392
959.37	68.571
959.54	77.471
959.71	56.872
959.88	54.013
960.05	65.083
960.22	61.408
960.39	59.662
960.56	55.702
960.72	61.123
960.89	40.340
961.06	47.917
961.23	50.794
961.40	51.630
961.57	53.472
961.74	51.383
961.90	53.333
962.07	56.329
962.24	50.570
962.41	49.448
962.58	51.709
962.75	56.485
962.92	62.527
963.08	53.933
963.25	57.484
963.42	65.468
963.59	56.992
963.76	54.853
963.93	55.963
964.10	56.047
964.26	57.113
964.43	63.510
964.60	60.941
964.77	69.444
964.94	71.462
965.10	55.372
965.27	54.005
965.44	57.859
965.61	71.739
965.78	54.091
965.95	62.768
966.11	70.737
966.28	65.374
966.45	66.298
966.62	64.904
966.79	55.026
966.95	61.538
967.12	61.937
967.29	56.009
967.46	66.063
967.63	59.362
967.79	69.631
967.96	59.735
968.13	63.938
968.30	60.630
968.47	61.667
968.63	56.930
968.80	58.717
968.97	68.337
969.14	61.980
969.31	68.162
969.47	59.351
969.64	65.932
969.81	52.220
969.98	57.108
970.14	63.341
970.31	60.652
970.48	66.741
970.65	73.412
970.81	73.177
970.98	60.814
971.15	60.377
971.32	67.556
971.48	63.516
971.65	73.585
971.82	53.950
971.99	64.550
972.15	64.133
972.32	48.592
972.49	73.987
972.66	56.473
972.82	55.530
972.99	48.706
973.16	42.521
973.33	65.877
973.49	57.935
973.66	60.317
973.83	59.694
974.00	70.270
974.16	71.136
974.33	70.670
974.50	64.493
974.67	61.975
974.83	67.797
975.00	62.201
975.17	66.437
975.33	66.121
975.50	59.140
975.67	66.359
975.84	59.402
976.00	60.706
976.17	57.882
976.34	72.864
976.50	74.309
976.67	65.826
976.84	52.551
977.00	64.066
977.17	65.070
977.34	53.110
977.50	53.351
977.67	53.425
977.84	59.026
978.01	56.806
978.17	63.728
978.34	63.772
978.51	60.291
978.67	62.844
978.84	56.782
979.01	43.868
979.17	57.053
979.34	48.446
979.51	57.750
979.67	51.456
979.84	56.295
980.01	53.759
980.17	59.483
980.34	53.385
980.51	58.661
980.67	49.091
980.84	41.856
981.01	43.939
981.17	45.882
981.34	47.368
981.50	49.519
981.67	53.102
981.84	49.633
982.00	46.134
982.17	45.802
982.34	49.533
982.50	45.732
982.67	54.522
982.84	58.178
983.00	53.264
983.17	43.578
983.33	49.556
983.50	48.206
983.67	41.630
983.83	51.893
984.00	40.625
984.17	35.622
984.33	46.250
984.50	39.958
984.66	48.196
984.83	44.872
985.00	46.222
985.16	45.570
985.33	40.682
985.49	45.860
985.66	36.446
985.83	44.467
985.99	49.896
986.16	45.401
986.32	44.578
986.49	40.271
986.66	40.091
986.82	42.795
986.99	42.657
987.15	57.243
987.32	49.292
987.49	39.367
987.65	46.387
987.82	39.691
987.98	56.573
988.15	55.216
988.31	47.045
988.48	46.682
988.65	63.492
988.81	43.177
988.98	40.237
989.14	57.583
989.31	48.221
989.47	48.798
989.64	50.901
989.80	53.286
989.97	54.329
990.14	57.660
990.30	41.106
990.47	41.990
990.63	46.172
990.80	50.722
990.96	42.857
991.13	41.964
991.29	53.207
991.46	60.808
991.62	41.163
991.79	41.962
991.95	47.404
992.12	35.828
992.29	31.504
992.45	49.312
992.62	35.650
992.78	34.801
992.95	46.411
993.11	34.676
993.28	40.587
993.44	41.357
993.61	27.593
993.77	34.293
993.94	29.519
994.10	33.544
994.27	42.787
994.43	39.451
994.60	41.500
994.76	41.109
994.93	28.246
995.09	35.310
995.26	44.417
995.42	31.144
995.59	31.926
995.75	41.667
995.92	27.059
996.08	25.882
996.25	30.864
996.41	22.059
996.58	31.050
996.74	29.936
996.91	17.755
997.07	26.829
997.23	22.549
997.40	20.971
997.56	17.056
997.73	19.250
997.89	19.239
998.06	22.026
998.22	17.445
998.39	15.126
998.55	24.942
998.72	22.664
998.88	26.250
999.05	16.393
999.21	15.513
999.37	24.202
999.54	22.475
999.70	14.880
999.87	17.337
1000.03	24.886
1000.20	23.558
1000.36	22.542
1000.52	16.946
1000.69	31.717
1000.85	17.927
1001.02	8.447
1001.18	16.635
1001.35	27.176
1001.51	14.922
1001.67	14.031
1001.84	23.207
1002.00	16.807
1002.17	12.615
1002.33	10.539
1002.50	32.280
1002.66	20.142
1002.82	15.075
1002.99	14.133
1003.15	23.810
1003.32	33.584
1003.48	18.421
1003.64	11.959
1003.81	18.258
1003.97	21.233
1004.14	34.123
1004.30	30.467
1004.46	36.554
1004.63	19.048
1004.79	20.000
1004.95	15.167
1005.12	37.088
1005.28	24.607
1005.45	29.493
1005.61	28.117
1005.77	29.557
1005.94	25.112
1006.10	18.892
1006.26	29.017
1006.43	27.488
1006.59	20.506
1006.76	24.274
1006.92	29.882
1007.08	43.062
1007.25	34.437
1007.41	18.225
1007.57	28.431
1007.74	25.189
1007.90	32.990
1008.06	33.333
1008.23	32.051
1008.39	30.335
1008.55	24.654
1008.72	23.940
1008.88	36.889
1009.04	35.421
1009.21	36.516
1009.37	38.158
1009.53	33.094
1009.70	27.688
1009.86	36.243
1010.02	22.323
1010.19	32.571
1010.35	17.994
1010.51	36.993
1010.68	38.889
1010.84	31.496
1011.00	33.846
1011.17	39.612
1011.33	33.252
1011.49	38.136
1011.66	30.256
1011.82	28.645
1011.98	38.066
1012.14	28.493
1012.31	37.168
1012.47	38.363
1012.63	37.644
1012.80	43.651
1012.96	39.572
1013.12	34.167
1013.29	35.180
1013.45	39.426
1013.61	41.085
1013.77	40.052
1013.94	33.681
1014.10	25.758
1014.26	32.673
1014.43	32.967
1014.59	41.033
1014.75	36.528
1014.91	33.181
1015.08	29.056
1015.24	31.395
1015.40	33.500
1015.56	34.211
1015.73	26.420
1015.89	40.860
1016.05	32.227
1016.21	40.103
1016.38	36.729
1016.54	39.181
1016.70	25.000
1016.86	34.770
1017.03	29.700
1017.19	38.155
1017.35	25.943
1017.51	34.521
1017.68	42.338
1017.84	31.529
1018.00	40.992
1018.16	35.000
1018.33	44.101
1018.49	43.175
1018.65	40.054
1018.81	44.037
1018.97	33.994
1019.14	41.689
1019.30	40.793
1019.46	56.357
1019.62	28.125
1019.79	51.724
1019.95	51.671
1020.11	55.763
1020.27	41.639
1020.43	43.158
1020.60	69.318
1020.76	63.296
1020.92	49.860
1021.08	44.079
1021.24	41.615
1021.41	51.333
1021.57	53.736
1021.73	39.344
1021.89	53.618
1022.05	54.704
1022.21	50.833
1022.38	49.714
1022.54	38.395
1022.70	59.667
1022.86	49.568
1023.02	58.841
1023.19	76.316
1023.35	47.910
1023.51	39.744
1023.67	54.651
1023.83	50.382
1023.99	56.338
1024.16	53.571
1024.32	48.867
1024.48	61.702
1024.64	40.728
1024.80	47.872
1024.96	54.938
1025.12	53.292
1025.29	60.071
1025.45	46.429
1025.61	50.000
1025.77	47.653
1025.93	50.621
1026.09	54.054
1026.26	61.149
1026.42	72.951
1026.58	62.284
1026.74	55.294
1026.90	63.444
1027.06	51.155
1027.22	58.054
1027.38	59.220
1027.55	68.932
1027.71	69.767
1027.87	56.949
1028.03	59.761
1028.19	56.610
1028.35	57.196
1028.51	56.169
1028.67	49.430
1028.83	41.558
1029.00	51.379
1029.16	53.125
1029.32	41.353
1029.48	46.094
1029.64	63.607
1029.80	58.130
1029.96	74.603
1030.12	72.161
1030.28	58.246
1030.44	67.857
1030.61	52.743
1030.77	43.033
1030.93	62.302
1031.09	36.471
1031.25	68.528
1031.41	57.430
1031.57	53.586
1031.73	31.250
1031.89	59.364
1032.05	50.936
1032.21	44.082
1032.37	50.000
1032.53	58.801
1032.69	66.094
1032.86	46.154
1033.02	45.847
1033.18	53.077
1033.34	48.387
1033.50	47.150
1033.66	54.717
1033.82	69.963
1033.98	39.224
1034.14	54.378
1034.30	57.252
1034.46	60.150
1034.62	66.667
1034.78	60.662
1034.94	37.906
1035.10	63.107
1035.26	45.017
1035.42	60.927
1035.58	55.235
1035.74	53.527
1035.90	77.073
1036.06	54.682
1036.22	44.275
1036.38	62.996
1036.54	60.656
1036.70	59.167
1036.86	88.660
1037.02	63.004
1037.18	66.667
1037.34	36.508
1037.50	73.786
1037.66	66.316
1037.82	64.931
1037.98	64.516
1038.14	59.116
1038.30	61.923
1038.46	72.662
1038.62	63.850
1038.78	81.731
1038.94	71.429
1039.10	88.038
1039.26	82.328
1039.42	76.606
1039.58	76.331
1039.74	61.506
1039.90	68.500
1040.06	94.634
>>>>>End Processed Spectral Data<<<<<
