SpectraSuite Data File
++++++++++++++++++++++++++++++++++++
Date: Wed Jan 25 18:47:24 EET 2017
User: TheoProf
Dark Spectrum Present: Yes
Reference Spectrum Present: Yes
Number of Sampled Component Spectra: 1
Spectrometers: USB4C02475
Integration Time (usec): 64136 (USB4C02475)
Spectra Averaged: 1 (USB4C02475)
Boxcar Smoothing: 0 (USB4C02475)
Correct for Electrical Dark: No (USB4C02475)
Strobe/Lamp Enabled: No (USB4C02475)
Correct for Detector Non-linearity: No (USB4C02475)
Correct for Stray Light: No (USB4C02475)
Number of Pixels in Processed Spectrum: 3648
>>>>>Begin Processed Spectral Data<<<<<
344.91	241.667
345.13	241.667
345.35	241.667
345.57	28.571
345.79	600.000
346.00	5.263
346.22	75.000
346.44	13.793
346.66	-400.000
346.87	113.793
347.09	240.000
347.31	36.957
347.53	50.980
347.74	39.474
347.96	189.286
348.18	183.333
348.40	157.895
348.61	223.077
348.83	51.515
349.05	108.197
349.27	45.833
349.48	82.353
349.70	194.118
349.92	61.290
350.14	85.246
350.35	0.000
350.57	-4.167
350.79	105.882
351.01	63.077
351.22	-130.000
351.44	21.795
351.66	40.000
351.87	150.000
352.09	150.000
352.31	8.571
352.53	41.667
352.74	113.793
352.96	38.000
353.18	14.634
353.40	1500.000
353.61	76.190
353.83	381.818
354.05	30.000
354.26	19.697
354.48	21.429
354.70	0.000
354.92	-26.923
355.13	103.448
355.35	64.151
355.57	-9.804
355.78	-41.935
356.00	20.833
356.22	87.671
356.44	4.687
356.65	26.923
356.87	0.000
357.09	84.000
357.30	61.224
357.52	533.333
357.74	25.455
357.95	-58.333
358.17	61.364
358.39	93.023
358.60	34.375
358.82	-46.154
359.04	-200.000
359.26	19.608
359.47	-25.000
359.69	25.743
359.91	255.000
360.12	-130.000
360.34	64.865
360.56	383.333
360.77	46.154
360.99	77.586
361.21	46.429
361.42	8.511
361.64	550.000
361.86	-120.833
362.07	-56.098
362.29	-2.273
362.51	17.857
362.72	253.846
362.94	56.923
363.16	36.364
363.37	-9.375
363.59	0.000
363.81	-12.500
364.02	48.980
364.24	-315.385
364.46	92.308
364.67	500.000
364.89	-12.121
365.11	16.667
365.32	-50.000
365.54	-210.526
365.76	5.747
365.97	118.182
366.19	-81.818
366.41	78.571
366.62	11.429
366.84	100.000
367.05	41.818
367.27	57.576
367.49	129.032
367.70	108.571
367.92	42.105
368.14	-7.143
368.35	100.000
368.57	22.785
368.79	20.755
369.00	91.837
369.22	300.000
369.43	40.625
369.65	72.500
369.87	102.857
370.08	5.556
370.30	-20.000
370.51	-260.000
370.73	7.576
370.95	-76.923
371.16	22.222
371.38	775.000
371.60	666.667
371.81	44.737
372.03	102.899
372.24	-675.000
372.46	75.862
372.68	91.667
372.89	33.333
373.11	-28.814
373.32	70.370
373.54	39.474
373.76	118.367
373.97	27.027
374.19	-79.487
374.40	10.345
374.62	-68.750
374.84	48.000
375.05	31.481
375.27	-2.000
375.48	-158.824
375.70	48.276
375.92	51.923
376.13	46.667
376.35	65.079
376.56	-171.429
376.78	95.455
376.99	24.615
377.21	-39.535
377.43	30.769
377.64	-6.494
377.86	50.000
378.07	360.000
378.29	18.182
378.51	55.556
378.72	71.233
378.94	52.857
379.15	-14.035
379.37	78.000
379.58	168.750
379.80	77.083
380.01	-26.316
380.23	-11.111
380.45	-23.684
380.66	-2.899
380.88	118.182
381.09	0.000
381.31	12.500
381.52	-26.087
381.74	48.421
381.95	-190.000
382.17	6.818
382.39	24.138
382.60	66.667
382.82	-32.000
383.03	-31.250
383.25	-33.750
383.46	-63.158
383.68	-63.636
383.89	20.952
384.11	69.492
384.32	-27.907
384.54	20.202
384.76	23.913
384.97	45.098
385.19	-6.250
385.40	-37.097
385.62	29.310
385.83	-14.286
386.05	28.333
386.26	-111.111
386.48	65.574
386.69	38.272
386.91	0.000
387.12	52.308
387.34	-69.231
387.55	-255.556
387.77	23.288
387.98	32.353
388.20	7.895
388.41	-134.286
388.63	60.000
388.84	55.882
389.06	71.212
389.27	43.564
389.49	44.615
389.70	54.902
389.92	-8.929
390.13	51.020
390.35	10.294
390.56	90.196
390.78	39.773
390.99	38.028
391.21	67.647
391.42	12.346
391.64	-55.000
391.85	37.500
392.07	-275.000
392.28	-57.377
392.50	-21.111
392.71	-43.548
392.93	43.103
393.14	45.283
393.36	17.925
393.57	37.634
393.79	-2800.000
394.00	29.412
394.22	13.889
394.43	10.753
394.65	-3.226
394.86	23.077
395.08	11.392
395.29	32.941
395.50	23.171
395.72	-12.903
395.93	0.000
396.15	21.774
396.36	35.632
396.58	30.435
396.79	8.108
397.01	85.937
397.22	-38.806
397.44	0.000
397.65	21.667
397.87	-10.811
398.08	3.419
398.29	-17.647
398.51	62.667
398.72	27.273
398.94	17.544
399.15	-1.980
399.37	51.493
399.58	-8.511
399.80	26.471
400.01	21.429
400.22	-13.889
400.44	-2.222
400.65	6.618
400.87	12.069
401.08	-13.636
401.30	15.278
401.51	-19.355
401.72	29.677
401.94	56.897
402.15	-11.207
402.37	36.792
402.58	2.778
402.80	-35.616
403.01	-34.568
403.22	21.053
403.44	29.545
403.65	47.794
403.87	15.714
404.08	11.538
404.30	-19.231
404.51	10.169
404.72	46.099
404.94	12.977
405.15	6.757
405.37	21.260
405.58	-34.286
405.79	6.316
406.01	12.418
406.22	-0.800
406.44	21.986
406.65	15.000
406.86	52.980
407.08	6.481
407.29	19.079
407.51	13.462
407.72	14.583
407.93	3.947
408.15	22.699
408.36	-5.839
408.58	23.243
408.79	10.563
409.00	18.065
409.22	17.486
409.43	29.787
409.64	3.906
409.86	27.160
410.07	-12.025
410.29	9.346
410.50	-38.136
410.71	-13.072
410.93	15.508
411.14	-5.521
411.35	11.765
411.57	-24.096
411.78	-4.142
412.00	4.196
412.21	-21.233
412.42	2.994
412.64	9.091
412.85	6.433
413.06	6.881
413.28	8.667
413.49	5.314
413.70	18.079
413.92	31.724
414.13	4.464
414.34	13.613
414.56	-17.178
414.77	-1.176
414.98	-1.047
415.20	14.451
415.41	-10.000
415.63	19.298
415.84	20.588
416.05	30.435
416.27	14.545
416.48	10.656
416.69	12.613
416.91	4.348
417.12	9.896
417.33	0.844
417.55	-11.047
417.76	-8.621
417.97	18.049
418.19	15.580
418.40	4.945
418.61	-3.361
418.83	-3.167
419.04	0.450
419.25	6.967
419.46	-1.747
419.68	20.952
419.89	3.743
420.10	11.715
420.32	-2.789
420.53	11.647
420.74	5.000
420.96	15.139
421.17	7.115
421.38	6.130
421.60	17.917
421.81	-10.417
422.02	12.644
422.23	0.415
422.45	-5.185
422.66	-0.417
422.87	3.053
423.09	-3.084
423.30	16.204
423.51	30.996
423.73	6.061
423.94	12.803
424.15	-2.317
424.36	12.188
424.58	12.457
424.79	9.571
425.00	1.056
425.22	23.667
425.43	14.130
425.64	6.494
425.85	-15.789
426.07	13.565
426.28	8.219
426.49	-9.963
426.71	-2.339
426.92	4.438
427.13	-5.281
427.34	6.061
427.56	16.369
427.77	-8.594
427.98	-15.323
428.19	1.158
428.41	1.365
428.62	4.795
428.83	14.763
429.04	-1.863
429.26	-2.360
429.47	15.385
429.68	-3.385
429.89	5.357
430.11	7.292
430.32	9.763
430.53	15.476
430.74	3.727
430.96	10.733
431.17	7.407
431.38	-4.194
431.59	-4.893
431.81	0.000
432.02	-0.562
432.23	3.636
432.44	-3.333
432.66	-0.838
432.87	-1.520
433.08	4.398
433.29	2.284
433.51	10.294
433.72	4.215
433.93	6.294
434.14	5.164
434.35	7.022
434.57	7.966
434.78	9.880
434.99	11.638
435.20	1.553
435.42	11.680
435.63	14.391
435.84	8.733
436.05	19.753
436.26	7.336
436.48	15.888
436.69	9.149
436.90	7.486
437.11	12.849
437.32	8.351
437.54	7.900
437.75	18.290
437.96	11.976
438.17	10.979
438.38	28.715
438.60	17.724
438.81	9.438
439.02	24.704
439.23	31.296
439.44	26.562
439.66	28.571
439.87	31.008
440.08	42.355
440.29	35.271
440.50	29.320
440.72	28.457
440.93	37.077
441.14	38.623
441.35	51.357
441.56	42.068
441.77	36.617
441.99	42.123
442.20	49.462
442.41	46.691
442.62	37.931
442.83	42.399
443.04	46.154
443.26	37.480
443.47	41.955
443.68	52.525
443.89	40.331
444.10	44.086
444.31	47.368
444.53	59.098
444.74	58.703
444.95	61.302
445.16	61.409
445.37	53.398
445.58	77.419
445.80	71.890
446.01	70.759
446.22	77.778
446.43	71.012
446.64	73.047
446.85	74.656
447.06	73.969
447.28	77.339
447.49	87.107
447.70	88.073
447.91	79.638
448.12	78.000
448.33	77.379
448.54	85.471
448.76	82.930
448.97	78.138
449.18	89.338
449.39	86.983
449.60	79.775
449.81	83.929
450.02	82.511
450.23	76.953
450.45	82.237
450.66	83.396
450.87	77.920
451.08	80.074
451.29	79.694
451.50	81.028
451.71	73.464
451.92	72.304
452.13	74.751
452.35	81.362
452.56	82.896
452.77	90.194
452.98	90.548
453.19	86.335
453.40	93.045
453.61	87.248
453.82	97.280
454.03	84.908
454.25	83.484
454.46	91.322
454.67	84.091
454.88	75.155
455.09	75.618
455.30	76.671
455.51	84.949
455.72	78.000
455.93	85.844
456.14	88.591
456.35	80.963
456.56	86.139
456.78	83.017
456.99	81.095
457.20	74.862
457.41	86.551
457.62	76.809
457.83	84.176
458.04	85.804
458.25	85.078
458.46	82.276
458.67	75.463
458.88	86.688
459.09	87.031
459.30	90.778
459.51	86.957
459.73	91.277
459.94	88.207
460.15	88.037
460.36	87.452
460.57	85.419
460.78	84.426
460.99	84.716
461.20	78.992
461.41	85.568
461.62	91.431
461.83	83.594
462.04	87.404
462.25	87.633
462.46	90.727
462.67	89.182
462.88	97.227
463.09	94.128
463.30	92.521
463.51	95.513
463.72	90.886
463.93	95.582
464.15	91.059
464.36	87.717
464.57	85.382
464.78	82.893
464.99	83.914
465.20	88.109
465.41	94.491
465.62	89.032
465.83	88.126
466.04	95.512
466.25	97.134
466.46	99.474
466.67	91.938
466.88	86.642
467.09	79.849
467.30	85.763
467.51	87.657
467.72	89.360
467.93	86.745
468.14	87.019
468.35	88.668
468.56	84.221
468.77	83.496
468.98	86.684
469.19	85.300
469.40	90.915
469.61	91.546
469.82	87.899
470.03	84.847
470.24	89.474
470.45	84.002
470.66	84.509
470.87	87.430
471.08	91.812
471.29	96.919
471.50	92.179
471.71	90.227
471.92	87.867
472.13	86.689
472.34	90.017
472.55	83.530
472.76	87.874
472.97	82.908
473.18	90.559
473.39	87.233
473.60	86.145
473.81	88.884
474.01	86.222
474.22	88.798
474.43	90.380
474.64	92.121
474.85	85.802
475.06	88.910
475.27	89.447
475.48	86.713
475.69	88.593
475.90	91.938
476.11	92.468
476.32	92.821
476.53	92.764
476.74	97.710
476.95	91.933
477.16	90.859
477.37	91.833
477.58	90.097
477.79	89.413
478.00	90.626
478.21	89.731
478.41	89.423
478.62	89.414
478.83	91.950
479.04	89.740
479.25	92.095
479.46	93.026
479.67	90.852
479.88	88.581
480.09	88.176
480.30	93.199
480.51	92.257
480.72	89.568
480.93	87.934
481.14	90.444
481.34	85.054
481.55	87.136
481.76	87.111
481.97	86.837
482.18	90.235
482.39	85.673
482.60	86.797
482.81	89.589
483.02	90.110
483.23	86.382
483.44	87.108
483.65	86.200
483.85	88.554
484.06	90.330
484.27	88.215
484.48	89.247
484.69	87.705
484.90	91.235
485.11	89.584
485.32	88.685
485.53	87.356
485.73	85.698
485.94	82.987
486.15	76.326
486.36	76.076
486.57	74.490
486.78	71.654
486.99	67.325
487.20	65.053
487.41	60.238
487.61	59.235
487.82	56.674
488.03	51.469
488.24	44.030
488.45	40.726
488.66	33.421
488.87	29.641
489.08	24.980
489.28	23.161
489.49	18.928
489.70	16.905
489.91	12.762
490.12	10.936
490.33	9.592
490.54	8.831
490.74	5.426
490.95	6.055
491.16	3.901
491.37	1.731
491.58	3.018
491.79	2.496
492.00	1.821
492.20	2.439
492.41	1.103
492.62	1.522
492.83	2.597
493.04	2.036
493.25	2.003
493.45	1.954
493.66	1.366
493.87	1.889
494.08	1.182
494.29	1.325
494.50	0.836
494.70	1.580
494.91	1.661
495.12	1.529
495.33	1.732
495.54	1.190
495.75	1.705
495.95	0.317
496.16	0.759
496.37	1.144
496.58	0.460
496.79	0.580
496.99	0.581
497.20	1.447
497.41	1.866
497.62	1.312
497.83	0.849
498.04	0.150
498.24	0.321
498.45	1.270
498.66	1.618
498.87	1.714
499.08	1.053
499.28	1.347
499.49	1.282
499.70	1.093
499.91	0.673
500.12	-0.174
500.32	0.039
500.53	0.605
500.74	1.434
500.95	0.787
501.15	0.334
501.36	1.406
501.57	1.797
501.78	0.680
501.99	1.483
502.19	0.183
502.40	0.530
502.61	0.810
502.82	1.139
503.02	0.405
503.23	0.513
503.44	0.681
503.65	0.891
503.86	1.667
504.06	1.179
504.27	1.279
504.48	1.264
504.69	0.128
504.89	1.416
505.10	1.230
505.31	1.218
505.52	1.374
505.72	0.906
505.93	2.159
506.14	0.778
506.35	0.822
506.55	0.730
506.76	1.183
506.97	1.355
507.18	1.073
507.38	1.219
507.59	1.272
507.80	0.534
508.01	1.160
508.21	0.150
508.42	0.118
508.63	1.209
508.84	1.260
509.04	-0.135
509.25	0.460
509.46	0.814
509.67	0.435
509.87	0.633
510.08	0.850
510.29	0.664
510.49	0.807
510.70	0.670
510.91	1.167
511.12	0.422
511.32	1.109
511.53	0.652
511.74	1.361
511.94	0.711
512.15	0.440
512.36	1.326
512.57	0.910
512.77	0.090
512.98	0.332
513.19	0.951
513.39	0.175
513.60	0.883
513.81	-0.091
514.01	0.591
514.22	1.151
514.43	0.406
514.64	0.930
514.84	0.048
515.05	0.885
515.26	0.979
515.46	0.620
515.67	0.517
515.88	0.771
516.08	1.017
516.29	1.247
516.50	1.481
516.70	0.600
516.91	0.621
517.12	0.432
517.32	1.497
517.53	1.005
517.74	0.866
517.95	0.657
518.15	0.831
518.36	0.058
518.57	0.791
518.77	0.765
518.98	1.256
519.19	0.200
519.39	0.712
519.60	1.249
519.80	1.563
520.01	1.223
520.22	0.718
520.42	0.831
520.63	0.773
520.84	1.149
521.04	1.306
521.25	0.303
521.46	0.644
521.66	1.290
521.87	0.710
522.08	1.100
522.28	0.606
522.49	0.824
522.70	1.061
522.90	0.932
523.11	0.815
523.31	1.053
523.52	1.115
523.73	0.581
523.93	1.637
524.14	0.694
524.35	0.783
524.55	1.440
524.76	0.626
524.97	1.291
525.17	0.569
525.38	0.664
525.58	0.862
525.79	0.824
526.00	1.050
526.20	1.033
526.41	0.737
526.61	0.619
526.82	2.012
527.03	1.024
527.23	1.467
527.44	1.305
527.64	0.814
527.85	0.754
528.06	1.065
528.26	0.678
528.47	1.124
528.68	1.157
528.88	0.926
529.09	1.371
529.29	1.044
529.50	1.156
529.70	1.637
529.91	0.724
530.12	1.797
530.32	1.560
530.53	1.394
530.73	1.364
530.94	0.758
531.15	1.825
531.35	2.252
531.56	1.387
531.76	1.488
531.97	1.424
532.17	1.857
532.38	1.453
532.59	1.866
532.79	1.032
533.00	1.977
533.20	2.211
533.41	1.344
533.61	2.108
533.82	1.981
534.03	2.657
534.23	2.604
534.44	3.259
534.64	4.018
534.85	5.203
535.05	4.807
535.26	5.932
535.46	7.581
535.67	8.331
535.88	9.825
536.08	11.073
536.29	12.594
536.49	14.069
536.70	15.873
536.90	17.861
537.11	19.165
537.31	22.014
537.52	25.064
537.72	27.309
537.93	27.420
538.13	30.198
538.34	33.613
538.55	35.210
538.75	36.386
538.96	36.399
539.16	37.550
539.37	38.854
539.57	40.326
539.78	41.974
539.98	43.149
540.19	43.351
540.39	45.733
540.60	49.771
540.80	49.017
541.01	50.698
541.21	50.924
541.42	52.414
541.62	53.259
541.83	54.861
542.03	55.038
542.24	56.889
542.44	58.115
542.65	59.796
542.85	62.309
543.06	63.820
543.26	67.132
543.47	69.975
543.67	72.909
543.88	76.695
544.08	77.812
544.29	77.336
544.49	80.865
544.70	83.631
544.90	89.460
545.11	91.223
545.31	95.682
545.52	95.062
545.72	93.748
545.93	90.979
546.13	90.484
546.34	90.033
546.54	90.132
546.75	92.775
546.95	97.180
547.15	102.419
547.36	99.122
547.56	98.929
547.77	100.190
547.97	98.623
548.18	98.566
548.38	96.697
548.59	94.577
548.79	95.623
549.00	98.370
549.20	97.729
549.41	97.401
549.61	95.482
549.81	94.084
550.02	90.339
550.22	87.176
550.43	86.899
550.63	87.906
550.84	88.026
551.04	87.176
551.25	88.425
551.45	89.357
551.65	92.442
551.86	90.070
552.06	91.024
552.27	91.866
552.47	91.731
552.68	93.810
552.88	95.311
553.08	96.632
553.29	96.743
553.49	98.159
553.70	96.663
553.90	98.236
554.11	98.295
554.31	97.680
554.51	99.120
554.72	99.189
554.92	99.017
555.13	99.061
555.33	97.270
555.53	98.019
555.74	97.847
555.94	94.232
556.15	94.244
556.35	90.697
556.56	92.337
556.76	91.280
556.96	94.554
557.17	93.426
557.37	95.062
557.58	93.434
557.78	93.688
557.98	95.689
558.19	97.573
558.39	98.432
558.59	94.450
558.80	92.455
559.00	91.644
559.21	91.749
559.41	90.860
559.61	90.284
559.82	91.038
560.02	89.803
560.23	88.941
560.43	88.514
560.63	88.930
560.84	91.140
561.04	94.132
561.24	97.377
561.45	98.662
561.65	100.148
561.85	99.922
562.06	95.654
562.26	96.108
562.47	93.688
562.67	92.530
562.87	93.830
563.08	90.621
563.28	91.665
563.48	91.076
563.69	90.805
563.89	93.657
564.09	95.851
564.30	94.691
564.50	93.193
564.70	92.537
564.91	92.795
565.11	92.116
565.31	89.343
565.52	88.397
565.72	87.910
565.92	87.475
566.13	87.038
566.33	88.251
566.53	88.653
566.74	92.131
566.94	93.970
567.14	94.634
567.35	96.748
567.55	95.990
567.75	94.399
567.96	93.394
568.16	91.964
568.36	89.469
568.57	90.292
568.77	91.567
568.97	92.950
569.18	93.690
569.38	92.260
569.58	93.051
569.79	93.204
569.99	92.428
570.19	93.071
570.39	93.782
570.60	92.605
570.80	92.116
571.00	91.415
571.21	91.222
571.41	93.171
571.61	93.249
571.82	91.154
572.02	90.916
572.22	92.415
572.42	90.910
572.63	92.509
572.83	93.401
573.03	92.306
573.24	91.534
573.44	91.911
573.64	91.037
573.84	93.273
574.05	94.293
574.25	97.031
574.45	98.070
574.66	97.754
574.86	97.219
575.06	99.109
575.26	96.989
575.47	95.947
575.67	94.597
575.87	91.913
576.07	91.000
576.28	90.414
576.48	89.695
576.68	90.602
576.88	92.529
577.09	95.258
577.29	96.360
577.49	94.287
577.69	93.906
577.90	93.413
578.10	95.113
578.30	93.945
578.50	91.816
578.71	90.153
578.91	92.157
579.11	92.038
579.31	95.155
579.52	98.411
579.72	99.408
579.92	95.668
580.12	93.677
580.33	90.974
580.53	89.455
580.73	88.737
580.93	87.191
581.13	88.200
581.34	88.654
581.54	91.709
581.74	95.688
581.94	95.251
582.15	94.988
582.35	92.582
582.55	90.186
582.75	89.502
582.95	90.875
583.16	90.036
583.36	89.238
583.56	88.048
583.76	87.383
583.96	88.498
584.17	89.196
584.37	91.707
584.57	92.578
584.77	91.648
584.97	89.883
585.18	87.270
585.38	84.794
585.58	84.954
585.78	85.707
585.98	91.017
586.19	95.425
586.39	98.545
586.59	100.144
586.79	95.696
586.99	92.732
587.20	89.994
587.40	87.598
587.60	87.529
587.80	88.359
588.00	89.176
588.20	89.396
588.41	91.156
588.61	93.191
588.81	91.071
589.01	89.288
589.21	88.118
589.41	88.499
589.62	86.827
589.82	86.176
590.02	85.026
590.22	86.389
590.42	85.606
590.62	87.397
590.83	86.786
591.03	85.306
591.23	84.078
591.43	82.806
591.63	82.847
591.83	80.345
592.03	78.398
592.24	75.119
592.44	72.300
592.64	69.258
592.84	65.956
593.04	61.722
593.24	60.266
593.44	58.423
593.65	55.489
593.85	53.396
594.05	51.391
594.25	48.289
594.45	45.304
594.65	41.040
594.85	36.418
595.06	31.815
595.26	27.466
595.46	24.574
595.66	21.353
595.86	19.854
596.06	18.307
596.26	16.128
596.46	14.582
596.66	11.726
596.87	10.315
597.07	8.574
597.27	8.018
597.47	6.697
597.67	5.609
597.87	4.540
598.07	3.705
598.27	3.269
598.47	2.909
598.67	2.595
598.88	2.167
599.08	1.483
599.28	1.773
599.48	1.420
599.68	1.413
599.88	1.349
600.08	0.973
600.28	1.349
600.48	1.125
600.68	0.794
600.88	0.855
601.09	1.009
601.29	0.776
601.49	1.040
601.69	0.916
601.89	0.773
602.09	0.754
602.29	0.785
602.49	0.725
602.69	0.718
602.89	0.677
603.09	0.820
603.29	0.565
603.49	0.599
603.69	0.544
603.90	0.709
604.10	0.768
604.30	0.611
604.50	0.669
604.70	0.709
604.90	0.629
605.10	0.624
605.30	0.748
605.50	0.899
605.70	0.631
605.90	0.770
606.10	0.583
606.30	0.714
606.50	0.620
606.70	0.734
606.90	1.000
607.10	0.686
607.30	0.523
607.50	0.888
607.70	0.618
607.90	0.584
608.10	0.698
608.30	0.736
608.50	0.895
608.70	0.500
608.90	0.636
609.11	0.615
609.31	0.899
609.51	0.526
609.71	0.694
609.91	0.663
610.11	0.665
610.31	0.498
610.51	0.810
610.71	1.276
610.91	0.978
611.11	1.264
611.31	1.328
611.51	1.787
611.71	1.228
611.91	1.239
612.11	1.296
612.31	1.353
612.51	1.185
612.71	1.009
612.91	1.163
613.11	1.064
613.31	0.959
613.51	1.052
613.71	1.026
613.91	1.012
614.11	0.883
614.31	0.845
614.50	0.780
614.70	0.972
614.90	0.721
615.10	0.690
615.30	0.992
615.50	0.810
615.70	0.598
615.90	0.806
616.10	0.668
616.30	0.675
616.50	0.735
616.70	0.843
616.90	0.476
617.10	0.810
617.30	0.609
617.50	0.729
617.70	0.609
617.90	0.793
618.10	0.645
618.30	0.622
618.50	0.428
618.70	0.930
618.90	0.848
619.10	0.748
619.30	0.515
619.49	0.647
619.69	0.809
619.89	0.701
620.09	0.561
620.29	0.856
620.49	0.765
620.69	0.772
620.89	0.670
621.09	0.783
621.29	0.891
621.49	0.769
621.69	0.819
621.89	0.731
622.09	0.647
622.29	0.919
622.48	1.000
622.68	0.592
622.88	0.720
623.08	0.577
623.28	0.687
623.48	0.567
623.68	0.752
623.88	0.748
624.08	0.730
624.28	0.727
624.48	0.692
624.67	0.750
624.87	0.691
625.07	1.155
625.27	0.879
625.47	0.890
625.67	0.752
625.87	0.895
626.07	0.802
626.27	0.863
626.47	1.082
626.66	0.962
626.86	0.928
627.06	0.820
627.26	0.872
627.46	0.957
627.66	1.217
627.86	0.878
628.06	0.751
628.25	1.071
628.45	0.992
628.65	0.921
628.85	1.122
629.05	1.135
629.25	1.134
629.45	1.397
629.65	1.297
629.84	1.379
630.04	1.710
630.24	1.576
630.44	1.926
630.64	2.085
630.84	2.253
631.04	3.128
631.23	3.056
631.43	3.711
631.63	4.024
631.83	4.723
632.03	5.575
632.23	6.778
632.42	7.514
632.62	8.140
632.82	10.199
633.02	11.382
633.22	12.743
633.42	13.787
633.62	14.926
633.81	16.308
634.01	17.083
634.21	18.948
634.41	20.095
634.61	21.042
634.80	22.412
635.00	23.377
635.20	25.350
635.40	26.522
635.60	28.126
635.80	30.300
635.99	31.493
636.19	33.971
636.39	35.915
636.59	36.732
636.79	38.433
636.98	39.006
637.18	38.908
637.38	39.517
637.58	41.396
637.78	42.826
637.97	42.802
638.17	43.276
638.37	44.618
638.57	45.315
638.77	46.521
638.96	47.383
639.16	49.501
639.36	51.807
639.56	53.061
639.76	55.632
639.95	58.266
640.15	59.779
640.35	61.508
640.55	61.628
640.75	63.958
640.94	66.140
641.14	67.723
641.34	69.354
641.54	72.977
641.73	73.712
641.93	75.522
642.13	75.782
642.33	78.028
642.53	79.266
642.72	81.383
642.92	84.015
643.12	89.413
643.32	93.459
643.51	94.862
643.71	95.548
643.91	97.200
644.11	97.967
644.30	97.641
644.50	96.329
644.70	94.256
644.90	93.130
645.09	92.814
645.29	91.830
645.49	90.650
645.69	88.218
645.88	88.295
646.08	88.552
646.28	86.926
646.48	86.095
646.67	85.208
646.87	86.164
647.07	87.250
647.26	89.156
647.46	88.825
647.66	88.913
647.86	90.325
648.05	91.408
648.25	90.795
648.45	92.495
648.65	92.803
648.84	93.044
649.04	94.650
649.24	94.773
649.43	93.161
649.63	93.361
649.83	91.894
650.03	89.663
650.22	91.685
650.42	92.977
650.62	93.653
650.81	91.624
651.01	90.659
651.21	89.513
651.40	88.677
651.60	86.623
651.80	86.916
652.00	86.983
652.19	86.138
652.39	86.936
652.59	86.171
652.78	87.075
652.98	86.229
653.18	86.512
653.37	85.189
653.57	85.730
653.77	86.437
653.96	89.561
654.16	91.498
654.36	93.503
654.55	92.703
654.75	92.622
654.95	91.618
655.14	88.950
655.34	88.460
655.54	88.054
655.73	88.056
655.93	89.112
656.13	89.044
656.32	90.479
656.52	92.637
656.72	90.960
656.91	91.836
657.11	91.496
657.31	90.744
657.50	91.940
657.70	93.143
657.90	94.204
658.09	94.092
658.29	95.006
658.49	93.701
658.68	92.269
658.88	90.914
659.07	92.345
659.27	93.358
659.47	92.432
659.66	92.017
659.86	91.480
660.06	91.986
660.25	90.676
660.45	91.925
660.64	92.685
660.84	91.387
661.04	92.271
661.23	90.840
661.43	91.425
661.63	93.146
661.82	92.546
662.02	93.658
662.21	94.271
662.41	92.718
662.61	90.635
662.80	90.526
663.00	90.845
663.19	90.319
663.39	89.522
663.59	90.317
663.78	90.230
663.98	91.597
664.17	92.329
664.37	92.954
664.57	90.868
664.76	90.193
664.96	88.763
665.15	88.666
665.35	86.506
665.55	86.139
665.74	87.057
665.94	85.809
666.13	85.984
666.33	85.359
666.53	87.034
666.72	88.720
666.92	91.058
667.11	94.918
667.31	96.109
667.50	97.125
667.70	96.803
667.90	98.593
668.09	97.395
668.29	96.649
668.48	96.419
668.68	95.865
668.87	94.804
669.07	94.407
669.26	93.136
669.46	92.628
669.66	91.218
669.85	90.761
670.05	90.901
670.24	89.774
670.44	89.144
670.63	90.584
670.83	90.690
671.02	90.397
671.22	90.619
671.42	92.223
671.61	94.709
671.81	95.053
672.00	96.862
672.20	93.662
672.39	92.579
672.59	92.502
672.78	92.362
672.98	92.011
673.17	92.258
673.37	93.857
673.56	93.909
673.76	94.425
673.95	95.708
674.15	95.858
674.34	95.262
674.54	92.755
674.73	88.602
674.93	88.913
675.13	87.880
675.32	89.676
675.52	91.675
675.71	92.887
675.91	93.843
676.10	93.315
676.30	91.755
676.49	91.183
676.69	89.585
676.88	92.128
677.08	91.704
677.27	91.950
677.47	91.977
677.66	90.384
677.86	89.358
678.05	86.586
678.24	84.469
678.44	82.918
678.63	81.881
678.83	81.035
679.02	83.537
679.22	84.618
679.41	85.938
679.61	89.907
679.80	92.228
680.00	93.444
680.19	92.475
680.39	92.187
680.58	90.727
680.78	91.264
680.97	91.136
681.17	89.251
681.36	88.692
681.56	88.587
681.75	91.831
681.94	92.502
682.14	93.772
682.33	92.932
682.53	94.846
682.72	92.791
682.92	91.787
683.11	90.311
683.31	89.653
683.50	89.280
683.69	91.105
683.89	91.921
684.08	91.491
684.28	90.398
684.47	88.888
684.67	88.767
684.86	87.597
685.06	87.250
685.25	86.884
685.44	86.735
685.64	84.245
685.83	82.414
686.03	80.473
686.22	78.217
686.42	79.086
686.61	79.172
686.80	78.227
687.00	75.863
687.19	74.721
687.39	72.563
687.58	70.195
687.77	67.439
687.97	63.902
688.16	61.008
688.36	58.023
688.55	57.518
688.74	55.388
688.94	53.122
689.13	51.913
689.33	49.147
689.52	46.447
689.71	43.708
689.91	41.109
690.10	38.083
690.30	36.590
690.49	35.890
690.68	34.088
690.88	32.298
691.07	30.966
691.27	28.543
691.46	26.736
691.65	25.430
691.85	23.497
692.04	21.669
692.23	20.216
692.43	17.827
692.62	15.634
692.82	13.921
693.01	12.060
693.20	10.399
693.40	9.126
693.59	7.833
693.78	6.619
693.98	5.718
694.17	4.936
694.36	4.376
694.56	3.868
694.75	3.581
694.94	3.065
695.14	2.795
695.33	2.536
695.53	2.117
695.72	1.783
695.91	1.785
696.11	1.486
696.30	1.425
696.49	1.212
696.69	1.036
696.88	0.917
697.07	0.856
697.27	0.797
697.46	0.642
697.65	0.629
697.85	0.784
698.04	0.681
698.23	0.644
698.43	0.524
698.62	0.631
698.81	0.713
699.01	0.458
699.20	0.571
699.39	0.500
699.58	0.739
699.78	0.567
699.97	0.647
700.16	0.513
700.36	0.454
700.55	0.429
700.74	0.418
700.94	0.704
701.13	0.530
701.32	0.405
701.52	0.243
701.71	0.412
701.90	0.245
702.09	0.339
702.29	0.333
702.48	0.529
702.67	0.217
702.87	0.264
703.06	0.350
703.25	0.354
703.44	0.376
703.64	0.066
703.83	0.419
704.02	0.428
704.22	0.124
704.41	0.402
704.60	0.172
704.79	0.238
704.99	0.503
705.18	0.297
705.37	0.291
705.56	0.355
705.76	0.325
705.95	0.208
706.14	0.209
706.33	0.171
706.53	0.306
706.72	0.292
706.91	0.177
707.11	0.243
707.30	0.158
707.49	0.417
707.68	0.153
707.88	0.214
708.07	0.387
708.26	0.238
708.45	0.230
708.64	0.192
708.84	0.209
709.03	0.267
709.22	0.332
709.41	0.037
709.61	-0.004
709.80	0.226
709.99	-0.106
710.18	0.215
710.38	0.078
710.57	0.178
710.76	0.039
710.95	0.251
711.14	0.117
711.34	0.089
711.53	0.266
711.72	0.029
711.91	-0.012
712.11	0.392
712.30	0.250
712.49	0.038
712.68	0.168
712.87	0.100
713.07	0.110
713.26	0.088
713.45	0.048
713.64	0.190
713.83	0.156
714.03	0.346
714.22	-0.095
714.41	0.004
714.60	0.086
714.79	0.069
714.99	0.111
715.18	-0.022
715.37	0.022
715.56	0.217
715.75	0.210
715.94	0.206
716.14	0.234
716.33	0.072
716.52	-0.018
716.71	0.251
716.90	0.204
717.10	0.275
717.29	0.089
717.48	0.130
717.67	0.143
717.86	0.173
718.05	-0.066
718.24	0.075
718.44	0.124
718.63	-0.018
718.82	0.377
719.01	-0.031
719.20	0.177
719.39	-0.090
719.59	-0.009
719.78	0.205
719.97	0.111
720.16	-0.028
720.35	0.140
720.54	0.102
720.73	-0.201
720.93	0.206
721.12	0.158
721.31	0.289
721.50	0.135
721.69	-0.062
721.88	0.043
722.07	-0.072
722.27	0.014
722.46	-0.109
722.65	0.066
722.84	0.148
723.03	0.014
723.22	-0.104
723.41	0.107
723.60	0.068
723.79	0.122
723.99	0.078
724.18	0.042
724.37	0.094
724.56	0.170
724.75	0.133
724.94	0.127
725.13	0.235
725.32	-0.048
725.51	0.209
725.71	-0.052
725.90	0.100
726.09	0.033
726.28	0.076
726.47	0.043
726.66	0.206
726.85	0.128
727.04	0.298
727.23	0.240
727.42	0.120
727.61	0.034
727.81	0.151
728.00	0.193
728.19	-0.086
728.38	0.061
728.57	0.239
728.76	0.010
728.95	0.112
729.14	0.094
729.33	0.085
729.52	0.136
729.71	0.105
729.90	0.211
730.09	-0.127
730.28	-0.015
730.48	0.031
730.67	0.141
730.86	0.189
731.05	-0.042
731.24	-0.021
731.43	-0.238
731.62	0.437
731.81	0.179
732.00	0.211
732.19	0.080
732.38	0.155
732.57	0.223
732.76	-0.011
732.95	-0.005
733.14	0.277
733.33	0.166
733.52	0.311
733.71	0.152
733.90	-0.120
734.09	-0.118
734.28	-0.133
734.47	0.031
734.66	0.093
734.85	0.021
735.04	0.080
735.23	-0.011
735.42	0.039
735.61	0.130
735.81	-0.023
736.00	0.028
736.19	-0.126
736.38	0.074
736.57	-0.158
736.76	0.022
736.95	0.115
737.14	-0.059
737.33	0.595
737.52	-0.124
737.71	0.046
737.90	0.232
738.09	-0.270
738.28	-0.125
738.47	-0.062
738.66	0.006
738.85	0.046
739.04	-0.023
739.22	0.053
739.41	0.211
739.60	-0.023
739.79	-0.052
739.98	0.126
740.17	0.091
740.36	0.208
740.55	0.105
740.74	-0.121
740.93	0.274
741.12	-0.056
741.31	-0.080
741.50	0.342
741.69	0.040
741.88	-0.099
742.07	0.274
742.26	0.103
742.45	0.069
742.64	0.317
742.83	0.279
743.02	-0.124
743.21	-0.125
743.40	0.144
743.59	0.094
743.78	0.303
743.97	-0.213
744.16	0.020
744.34	0.281
744.53	0.382
744.72	-0.140
744.91	0.349
745.10	0.155
745.29	0.334
745.48	0.199
745.67	0.089
745.86	0.346
746.05	0.254
746.24	0.177
746.43	-0.006
746.62	0.000
746.81	-0.116
747.00	0.033
747.18	-0.065
747.37	-0.263
747.56	0.332
747.75	0.084
747.94	-0.185
748.13	0.126
748.32	0.178
748.51	0.041
748.70	0.063
748.89	-0.035
749.08	0.117
749.26	-0.069
749.45	-0.137
749.64	0.146
749.83	-0.369
750.02	0.079
750.21	-0.210
750.40	0.277
750.59	-0.207
750.78	0.104
750.96	0.188
751.15	0.330
751.34	0.306
751.53	0.000
751.72	-0.158
751.91	0.081
752.10	-0.081
752.29	0.409
752.47	0.045
752.66	0.327
752.85	0.123
753.04	0.119
753.23	0.249
753.42	0.048
753.61	0.136
753.80	0.281
753.98	0.287
754.17	0.274
754.36	0.353
754.55	0.074
754.74	-0.146
754.93	0.000
755.12	0.096
755.30	0.152
755.49	-0.118
755.68	0.181
755.87	0.115
756.06	0.331
756.25	-0.426
756.43	0.211
756.62	0.164
756.81	0.311
757.00	0.061
757.19	0.195
757.38	0.045
757.56	-0.037
757.75	0.075
757.94	0.282
758.13	-0.029
758.32	0.370
758.51	0.158
758.69	0.307
758.88	0.179
759.07	0.081
759.26	0.061
759.45	-0.217
759.63	0.599
759.82	0.285
760.01	0.309
760.20	-0.153
760.39	0.449
760.57	0.542
760.76	0.167
760.95	0.497
761.14	0.270
761.33	-0.399
761.51	0.301
761.70	-0.336
761.89	0.183
762.08	0.127
762.27	0.887
762.45	0.199
762.64	0.392
762.83	0.228
763.02	0.285
763.21	0.139
763.39	0.305
763.58	-0.702
763.77	-0.128
763.96	-0.219
764.14	0.624
764.33	0.091
764.52	-0.238
764.71	0.374
764.89	0.147
765.08	0.769
765.27	-0.507
765.46	-0.506
765.65	0.398
765.83	-0.108
766.02	-0.243
766.21	-0.282
766.40	-0.390
766.58	0.630
766.77	-0.057
766.96	-0.217
767.15	-0.149
767.33	0.107
767.52	0.509
767.71	0.422
767.90	-0.392
768.08	0.490
768.27	-0.224
768.46	-0.145
768.64	-0.666
768.83	-0.148
769.02	0.847
769.21	-0.101
769.39	-0.136
769.58	-0.325
769.77	0.360
769.96	0.751
770.14	0.631
770.33	0.118
770.52	0.846
770.70	-0.256
770.89	-0.257
771.08	-0.341
771.27	0.619
771.45	0.103
771.64	0.537
771.83	0.187
772.01	0.402
772.20	0.970
772.39	-0.245
772.57	-0.453
772.76	-0.110
772.95	0.675
773.14	0.519
773.32	0.296
773.51	0.379
773.70	0.264
773.88	-0.290
774.07	0.272
774.26	1.063
774.44	-0.287
774.63	0.000
774.82	-0.156
775.00	-0.057
775.19	0.152
775.38	-0.358
775.56	-0.515
775.75	0.154
775.94	-0.571
776.12	0.352
776.31	-0.120
776.50	0.998
776.68	0.578
776.87	0.422
777.06	-0.142
777.24	0.102
777.43	0.534
777.62	0.410
777.80	-0.184
777.99	-0.704
778.18	0.980
778.36	0.084
778.55	-0.621
778.74	-0.186
778.92	-0.581
779.11	1.037
779.29	-0.408
779.48	0.762
779.67	0.123
779.85	0.564
780.04	1.063
780.23	1.518
780.41	-0.325
780.60	-0.387
780.79	-0.040
780.97	0.300
781.16	0.826
781.34	-0.557
781.53	0.139
781.72	0.274
781.90	-0.253
782.09	0.447
782.28	0.350
782.46	0.961
782.65	0.920
782.83	-0.202
783.02	-1.184
783.21	-0.119
783.39	0.397
783.58	0.193
783.76	0.554
783.95	0.134
784.14	0.112
784.32	0.074
784.51	0.054
784.69	0.162
784.88	-0.418
785.06	-0.325
785.25	0.374
785.44	-0.354
785.62	-0.070
785.81	0.470
785.99	-0.036
786.18	-0.887
786.37	0.037
786.55	0.459
786.74	-0.838
786.92	0.119
787.11	0.435
787.29	0.118
787.48	-0.557
787.67	-0.138
787.85	0.390
788.04	0.232
788.22	0.809
788.41	0.262
788.59	1.091
788.78	0.131
788.96	-0.424
789.15	-0.713
789.34	-0.096
789.52	-0.405
789.71	0.531
789.89	0.719
790.08	0.422
790.26	-0.469
790.45	-0.724
790.63	-0.125
790.82	-0.193
791.00	0.455
791.19	0.390
791.38	1.048
791.56	0.267
791.75	-0.441
791.93	0.699
792.12	0.728
792.30	-0.070
792.49	-0.498
792.67	-0.293
792.86	-0.167
793.04	0.644
793.23	-0.225
793.41	0.000
793.60	-0.069
793.78	0.535
793.97	-0.139
794.15	1.182
794.34	1.355
794.52	0.537
794.71	0.204
794.89	0.200
795.08	0.195
795.26	-0.455
795.45	-0.094
795.63	-0.202
795.82	-0.149
796.00	-0.089
796.19	0.532
796.37	-0.314
796.56	-0.772
796.74	0.870
796.93	0.699
797.11	-0.160
797.30	0.202
797.48	-0.116
797.67	-0.043
797.85	-0.132
798.04	0.422
798.22	-0.480
798.41	-0.137
798.59	0.215
798.77	0.183
798.96	0.246
799.14	-0.463
799.33	-0.045
799.51	-0.045
799.70	0.119
799.88	-0.197
800.07	-0.104
800.25	0.296
800.44	0.205
800.62	0.118
800.80	0.717
800.99	0.370
801.17	-0.251
801.36	0.741
801.54	0.147
801.73	-0.632
801.91	-0.686
802.10	0.014
802.28	0.451
802.46	0.676
802.65	0.115
802.83	0.982
803.02	0.143
803.20	0.242
803.39	-0.043
803.57	-0.045
803.75	0.284
803.94	-0.213
804.12	0.591
804.31	0.125
804.49	0.336
804.67	0.066
804.86	0.737
805.04	-0.782
805.23	0.803
805.41	0.369
805.59	0.503
805.78	0.256
805.96	0.699
806.15	0.891
806.33	0.123
806.51	0.061
806.70	-0.015
806.88	-0.183
807.07	0.324
807.25	-0.047
807.43	-0.221
807.62	0.096
807.80	0.207
807.99	-0.313
808.17	0.340
808.35	-0.960
808.54	0.274
808.72	0.438
808.90	0.301
809.09	0.721
809.27	-0.619
809.46	0.264
809.64	-0.393
809.82	-0.278
810.01	0.093
810.19	0.107
810.37	0.030
810.56	0.075
810.74	0.240
810.92	0.105
811.11	0.509
811.29	0.107
811.48	-0.155
811.66	-0.409
811.84	0.226
812.03	0.935
812.21	-0.098
812.39	0.372
812.58	-0.066
812.76	0.280
812.94	-0.193
813.13	-0.209
813.31	-0.162
813.49	0.110
813.68	0.405
813.86	0.338
814.04	-0.238
814.23	0.724
814.41	-0.237
814.59	-0.059
814.78	-0.059
814.96	0.514
815.14	0.444
815.33	0.091
815.51	-0.277
815.69	0.405
815.87	-0.128
816.06	-0.146
816.24	0.198
816.42	0.335
816.61	0.379
816.79	-0.191
816.97	-0.816
817.16	-0.256
817.34	1.503
817.52	-0.380
817.70	-0.657
817.89	0.093
818.07	-0.422
818.25	0.477
818.44	-0.308
818.62	0.786
818.80	-0.461
818.98	0.711
819.17	0.036
819.35	0.316
819.53	-0.037
819.72	-0.283
819.90	1.442
820.08	-0.193
820.26	0.463
820.45	-0.795
820.63	-0.338
820.81	0.159
820.99	0.080
821.18	0.768
821.36	1.507
821.54	0.808
821.73	-0.136
821.91	1.019
822.09	-0.379
822.27	0.140
822.46	-0.041
822.64	0.709
822.82	-0.392
823.00	-0.912
823.19	1.046
823.37	0.108
823.55	0.668
823.73	0.891
823.91	-0.727
824.10	-0.575
824.28	0.844
824.46	0.122
824.64	0.143
824.83	0.049
825.01	0.191
825.19	-0.236
825.37	0.145
825.56	0.879
825.74	-0.046
825.92	-0.655
826.10	-1.541
826.28	0.022
826.47	1.006
826.65	0.542
826.83	-0.398
827.01	1.395
827.19	0.326
827.38	0.443
827.56	0.917
827.74	0.553
827.92	0.746
828.10	0.737
828.29	-0.567
828.47	1.647
828.65	-0.324
828.83	0.192
829.01	-0.025
829.20	-0.866
829.38	-0.207
829.56	-0.233
829.74	-0.902
829.92	1.493
830.10	-0.130
830.29	0.210
830.47	0.805
830.65	-0.129
830.83	0.464
831.01	-0.569
831.20	1.952
831.38	1.047
831.56	-0.326
831.74	0.824
831.92	0.927
832.10	1.548
832.29	0.541
832.47	1.990
832.65	1.141
832.83	-0.538
833.01	1.445
833.19	1.173
833.37	1.377
833.56	2.772
833.74	1.307
833.92	2.973
834.10	1.928
834.28	1.050
834.46	1.392
834.64	2.209
834.83	2.534
835.01	0.630
835.19	-0.028
835.37	0.471
835.55	0.605
835.73	1.804
835.91	-0.471
836.09	1.533
836.28	1.345
836.46	1.841
836.64	0.426
836.82	0.560
837.00	0.984
837.18	1.725
837.36	1.565
837.54	2.103
837.72	1.348
837.91	2.028
838.09	1.586
838.27	-0.345
838.45	1.933
838.63	1.947
838.81	0.230
838.99	1.368
839.17	1.631
839.35	2.301
839.53	2.844
839.72	1.519
839.90	3.227
840.08	2.050
840.26	2.404
840.44	0.772
840.62	2.300
840.80	2.191
840.98	1.161
841.16	1.899
841.34	2.423
841.52	1.148
841.70	2.252
841.89	3.148
842.07	2.126
842.25	4.364
842.43	4.802
842.61	3.546
842.79	5.552
842.97	5.372
843.15	5.963
843.33	5.458
843.51	6.575
843.69	7.468
843.87	6.140
844.05	9.123
844.23	8.007
844.41	9.227
844.59	10.375
844.77	9.314
844.95	10.380
845.13	11.132
845.31	12.542
845.50	12.070
845.68	12.578
845.86	11.918
846.04	10.627
846.22	12.823
846.40	15.033
846.58	14.820
846.76	14.813
846.94	14.598
847.12	14.484
847.30	13.641
847.48	16.554
847.66	17.051
847.84	15.600
848.02	17.223
848.20	15.726
848.38	19.465
848.56	17.689
848.74	18.432
848.92	19.889
849.10	20.604
849.28	20.253
849.46	21.294
849.64	21.952
849.82	23.543
850.00	21.574
850.18	20.133
850.36	23.358
850.54	23.353
850.72	24.509
850.90	22.847
851.08	21.061
851.26	25.572
851.44	24.773
851.62	25.041
851.80	27.619
851.98	25.156
852.16	29.176
852.34	28.639
852.52	26.705
852.70	27.020
852.87	27.837
853.05	27.087
853.23	26.120
853.41	26.194
853.59	25.981
853.77	27.076
853.95	28.190
854.13	25.801
854.31	26.627
854.49	25.417
854.67	22.218
854.85	23.851
855.03	22.987
855.21	23.056
855.39	22.089
855.57	23.446
855.75	22.337
855.93	21.281
856.11	19.127
856.28	20.484
856.46	20.893
856.64	19.520
856.82	18.225
857.00	18.238
857.18	17.018
857.36	15.127
857.54	17.586
857.72	17.172
857.90	15.107
858.08	15.082
858.26	13.937
858.44	14.521
858.61	14.465
858.79	11.315
858.97	12.755
859.15	13.346
859.33	11.618
859.51	13.201
859.69	13.583
859.87	14.397
860.05	14.150
860.23	12.884
860.40	14.034
860.58	12.939
860.76	15.376
860.94	17.541
861.12	17.688
861.30	19.184
861.48	20.691
861.66	23.045
861.84	22.921
862.01	26.369
862.19	25.513
862.37	27.252
862.55	27.528
862.73	30.837
862.91	32.640
863.09	33.645
863.27	32.392
863.44	34.022
863.62	34.336
863.80	37.060
863.98	34.850
864.16	35.427
864.34	36.576
864.52	35.354
864.69	36.604
864.87	36.169
865.05	34.989
865.23	34.466
865.41	35.167
865.59	34.024
865.76	31.714
865.94	33.139
866.12	30.041
866.30	29.167
866.48	27.574
866.66	28.051
866.83	29.396
867.01	28.202
867.19	23.201
867.37	24.829
867.55	23.090
867.73	20.618
867.90	20.940
868.08	18.925
868.26	20.068
868.44	19.370
868.62	20.301
868.79	18.629
868.97	18.394
869.15	19.593
869.33	21.313
869.51	21.445
869.69	21.721
869.86	18.900
870.04	20.462
870.22	21.280
870.40	22.619
870.57	22.775
870.75	20.681
870.93	22.131
871.11	21.895
871.29	20.967
871.46	22.072
871.64	22.270
871.82	20.108
872.00	22.642
872.18	21.545
872.35	21.021
872.53	21.237
872.71	19.539
872.89	20.078
873.06	22.560
873.24	18.535
873.42	20.877
873.60	19.654
873.77	19.016
873.95	17.943
874.13	17.947
874.31	17.168
874.49	18.286
874.66	17.789
874.84	16.683
875.02	15.707
875.20	16.252
875.37	15.214
875.55	16.521
875.73	17.494
875.91	16.905
876.08	15.632
876.26	16.673
876.44	18.370
876.61	16.709
876.79	17.529
876.97	15.601
877.15	16.459
877.32	18.050
877.50	17.891
877.68	15.926
877.86	15.764
878.03	16.445
878.21	17.905
878.39	15.898
878.56	19.009
878.74	18.230
878.92	19.097
879.10	18.418
879.27	16.318
879.45	15.455
879.63	20.071
879.80	17.195
879.98	17.862
880.16	18.969
880.34	17.997
880.51	18.320
880.69	18.797
880.87	19.538
881.04	16.342
881.22	18.973
881.40	17.876
881.57	16.298
881.75	18.777
881.93	18.059
882.10	17.262
882.28	17.954
882.46	16.051
882.63	19.682
882.81	18.441
882.99	19.412
883.16	17.455
883.34	18.895
883.52	17.997
883.69	18.475
883.87	18.924
884.05	20.259
884.22	19.540
884.40	20.238
884.58	20.100
884.75	20.453
884.93	20.748
885.11	20.652
885.28	20.828
885.46	22.334
885.64	20.797
885.81	22.280
885.99	22.226
886.17	23.134
886.34	24.433
886.52	23.867
886.70	25.627
886.87	23.578
887.05	24.722
887.22	26.024
887.40	24.707
887.58	23.698
887.75	24.924
887.93	26.173
888.11	24.141
888.28	25.451
888.46	25.858
888.63	24.582
888.81	26.045
888.99	25.682
889.16	28.061
889.34	28.716
889.51	27.637
889.69	29.984
889.87	30.720
890.04	29.949
890.22	32.418
890.39	32.399
890.57	34.076
890.75	35.239
890.92	35.753
891.10	36.967
891.27	36.415
891.45	37.842
891.63	37.367
891.80	40.172
891.98	39.364
892.15	39.013
892.33	41.424
892.51	39.629
892.68	40.595
892.86	39.833
893.03	38.755
893.21	38.723
893.38	41.062
893.56	39.742
893.74	44.981
893.91	43.979
894.09	42.615
894.26	40.516
894.44	42.316
894.61	42.766
894.79	41.064
894.96	40.957
895.14	39.180
895.32	39.011
895.49	41.471
895.67	41.298
895.84	38.771
896.02	42.125
896.19	41.686
896.37	41.406
896.54	43.034
896.72	43.923
896.89	44.216
897.07	44.205
897.25	45.993
897.42	48.711
897.60	48.950
897.77	47.476
897.95	47.356
898.12	51.886
898.30	51.599
898.47	55.600
898.65	51.948
898.82	56.015
899.00	55.603
899.17	56.387
899.35	59.272
899.52	57.158
899.70	57.713
899.87	59.612
900.05	59.658
900.22	58.911
900.40	57.920
900.57	61.213
900.75	62.850
900.92	59.940
901.10	61.325
901.27	63.583
901.45	64.000
901.62	64.673
901.80	60.563
901.97	63.378
902.15	61.717
902.32	59.977
902.50	64.983
902.67	62.844
902.85	61.962
903.02	64.919
903.20	64.553
903.37	65.095
903.54	62.905
903.72	61.806
903.89	56.551
904.07	62.525
904.24	61.580
904.42	59.505
904.59	57.463
904.77	58.643
904.94	54.212
905.12	57.002
905.29	53.562
905.47	52.050
905.64	54.102
905.81	54.101
905.99	55.218
906.16	57.360
906.34	58.417
906.51	59.984
906.69	59.968
906.86	59.326
907.03	59.621
907.21	57.461
907.38	59.709
907.56	54.640
907.73	56.335
907.91	59.378
908.08	58.836
908.25	56.221
908.43	59.126
908.60	61.015
908.78	59.747
908.95	59.421
909.13	60.762
909.30	60.666
909.47	61.448
909.65	61.997
909.82	58.082
910.00	61.009
910.17	59.958
910.34	61.092
910.52	63.032
910.69	62.863
910.87	61.070
911.04	65.626
911.21	64.316
911.39	64.442
911.56	64.410
911.73	61.800
911.91	70.856
912.08	66.722
912.26	68.678
912.43	68.676
912.60	71.486
912.78	74.352
912.95	74.730
913.13	72.580
913.30	74.582
913.47	76.775
913.65	75.606
913.82	75.722
913.99	69.037
914.17	70.667
914.34	67.514
914.51	71.853
914.69	68.250
914.86	67.130
915.03	70.997
915.21	69.349
915.38	70.494
915.56	71.495
915.73	72.801
915.90	73.643
916.08	74.960
916.25	70.763
916.42	70.270
916.60	74.934
916.77	74.545
916.94	72.133
917.12	66.757
917.29	66.340
917.46	70.163
917.64	66.755
917.81	64.446
917.98	62.801
918.16	64.390
918.33	63.845
918.50	60.566
918.67	60.248
918.85	62.445
919.02	62.829
919.19	61.791
919.37	62.451
919.54	64.839
919.71	62.873
919.89	65.500
920.06	64.196
920.23	63.502
920.41	61.303
920.58	63.188
920.75	64.298
920.92	62.050
921.10	65.000
921.27	60.778
921.44	64.920
921.62	65.233
921.79	65.563
921.96	63.413
922.13	62.963
922.31	65.177
922.48	62.945
922.65	61.679
922.82	65.632
923.00	60.255
923.17	62.390
923.34	63.502
923.52	64.111
923.69	66.476
923.86	62.914
924.03	62.566
924.21	63.607
924.38	63.085
924.55	64.341
924.72	58.983
924.90	65.999
925.07	66.739
925.24	64.074
925.41	66.192
925.59	64.569
925.76	61.188
925.93	72.868
926.10	61.050
926.28	66.834
926.45	63.243
926.62	54.008
926.79	57.287
926.96	56.461
927.14	54.609
927.31	54.294
927.48	54.412
927.65	55.603
927.83	55.797
928.00	55.315
928.17	57.918
928.34	52.726
928.51	52.798
928.69	54.884
928.86	56.497
929.03	49.746
929.20	50.111
929.37	50.472
929.55	54.211
929.72	56.751
929.89	54.082
930.06	56.824
930.23	56.151
930.41	55.312
930.58	60.324
930.75	60.067
930.92	56.551
931.09	57.224
931.27	54.887
931.44	52.845
931.61	52.417
931.78	52.749
931.95	53.860
932.12	54.219
932.30	50.219
932.47	49.173
932.64	52.083
932.81	45.534
932.98	51.028
933.16	52.833
933.33	53.191
933.50	48.996
933.67	47.881
933.84	50.814
934.01	48.989
934.18	46.530
934.36	47.624
934.53	50.874
934.70	49.708
934.87	43.981
935.04	47.588
935.21	49.007
935.38	46.218
935.56	46.890
935.73	48.060
935.90	47.065
936.07	46.020
936.24	46.072
936.41	48.723
936.58	45.287
936.76	45.855
936.93	48.092
937.10	48.775
937.27	49.448
937.44	48.104
937.61	44.915
937.78	44.900
937.95	43.860
938.13	46.975
938.30	47.582
938.47	40.491
938.64	38.989
938.81	43.162
938.98	41.499
939.15	38.111
939.32	43.576
939.49	38.925
939.66	40.564
939.84	33.666
940.01	37.337
940.18	38.443
940.35	38.153
940.52	35.240
940.69	33.449
940.86	33.165
941.03	31.585
941.20	30.507
941.37	33.846
941.54	37.902
941.71	39.770
941.89	33.101
942.06	30.127
942.23	30.779
942.40	36.667
942.57	34.207
942.74	39.012
942.91	37.738
943.08	39.340
943.25	41.992
943.42	40.871
943.59	40.367
943.76	35.358
943.93	35.198
944.10	36.376
944.27	27.346
944.44	39.406
944.61	43.466
944.79	38.451
944.96	35.513
945.13	40.678
945.30	40.515
945.47	37.808
945.64	43.347
945.81	44.875
945.98	44.966
946.15	39.544
946.32	47.566
946.49	45.484
946.66	38.863
946.83	42.445
947.00	46.890
947.17	48.154
947.34	38.574
947.51	44.257
947.68	45.741
947.85	46.096
948.02	52.321
948.19	49.285
948.36	52.623
948.53	61.246
948.70	56.631
948.87	67.980
949.04	56.973
949.21	53.795
949.38	49.490
949.55	59.194
949.72	61.944
949.89	50.625
950.06	55.732
950.23	65.488
950.40	53.897
950.57	68.649
950.74	66.078
950.91	59.559
951.08	65.505
951.25	65.019
951.42	70.699
951.59	69.439
951.76	69.697
951.93	63.309
952.10	63.406
952.27	68.202
952.44	65.306
952.61	67.097
952.77	68.311
952.94	73.780
953.11	56.000
953.28	67.547
953.45	65.244
953.62	58.621
953.79	67.222
953.96	58.008
954.13	62.261
954.30	67.339
954.47	70.796
954.64	68.846
954.81	67.807
954.98	60.037
955.15	67.800
955.32	62.742
955.49	77.495
955.65	71.000
955.82	69.043
955.99	72.549
956.16	73.373
956.33	83.300
956.50	69.650
956.67	71.227
956.84	67.228
957.01	79.022
957.18	72.962
957.35	76.613
957.52	77.108
957.68	77.009
957.85	79.149
958.02	73.684
958.19	82.683
958.36	77.488
958.53	80.729
958.70	76.231
958.87	82.103
959.04	77.436
959.21	70.485
959.37	97.662
959.54	74.943
959.71	73.460
959.88	72.234
960.05	71.734
960.22	73.544
960.39	64.493
960.56	68.202
960.72	67.568
960.89	63.907
961.06	55.208
961.23	61.678
961.40	60.688
961.57	64.815
961.74	62.846
961.90	62.424
962.07	67.932
962.24	61.977
962.41	63.135
962.58	56.838
962.75	64.017
962.92	62.092
963.08	50.337
963.25	69.414
963.42	56.115
963.59	61.653
963.76	54.628
963.93	49.771
964.10	57.209
964.26	62.343
964.43	66.282
964.60	66.353
964.77	65.046
964.94	64.151
965.10	62.397
965.27	50.343
965.44	65.148
965.61	66.576
965.78	50.000
965.95	53.699
966.11	72.350
966.28	55.125
966.45	70.442
966.62	57.933
966.79	46.296
966.95	66.742
967.12	54.054
967.29	55.782
967.46	54.977
967.63	55.532
967.79	57.484
967.96	55.310
968.13	48.928
968.30	55.906
968.47	56.042
968.63	55.437
968.80	56.313
968.97	63.781
969.14	59.010
969.31	54.701
969.47	46.374
969.64	52.305
969.81	50.317
969.98	55.637
970.14	52.495
970.31	52.609
970.48	54.018
970.65	62.824
970.81	58.333
970.98	51.178
971.15	44.864
971.32	50.889
971.48	53.626
971.65	48.787
971.82	41.309
971.99	56.614
972.15	43.705
972.32	43.427
972.49	43.923
972.66	44.420
972.82	39.278
972.99	43.765
973.16	41.880
973.33	49.289
973.49	37.028
973.66	44.974
973.83	44.643
974.00	49.324
974.16	53.636
974.33	53.631
974.50	47.585
974.67	49.630
974.83	55.448
975.00	34.450
975.17	46.667
975.33	50.234
975.50	38.710
975.67	52.074
975.84	49.786
976.00	43.059
976.17	48.235
976.34	47.236
976.50	42.265
976.67	47.018
976.84	46.173
977.00	39.480
977.17	50.986
977.34	44.737
977.50	50.938
977.67	50.913
977.84	50.143
978.01	29.319
978.17	62.469
978.34	53.102
978.51	54.479
978.67	60.550
978.84	45.057
979.01	35.849
979.17	46.737
979.34	60.104
979.51	34.000
979.67	51.699
979.84	40.855
980.01	39.636
980.17	49.713
980.34	54.427
980.51	46.882
980.67	42.078
980.84	42.268
981.01	36.111
981.17	41.765
981.34	39.158
981.50	38.462
981.67	45.409
981.84	42.543
982.00	47.165
982.17	31.807
982.34	46.028
982.50	37.398
982.67	46.253
982.84	39.720
983.00	46.997
983.17	35.321
983.33	37.333
983.50	35.202
983.67	39.207
983.83	34.298
984.00	29.087
984.17	27.253
984.33	28.750
984.50	24.736
984.66	32.474
984.83	28.205
985.00	30.889
985.16	24.557
985.33	11.818
985.49	22.293
985.66	25.968
985.83	24.180
985.99	27.329
986.16	27.593
986.32	21.285
986.49	23.756
986.66	21.412
986.82	22.707
986.99	26.340
987.15	24.533
987.32	28.774
987.49	17.873
987.65	12.587
987.82	21.134
987.98	23.005
988.15	19.338
988.31	24.350
988.48	27.962
988.65	18.254
988.81	31.991
988.98	22.091
989.14	24.645
989.31	19.763
989.47	19.952
989.64	19.369
989.80	24.178
989.97	23.377
990.14	22.340
990.30	25.481
990.47	18.932
990.63	25.290
990.80	27.216
990.96	12.212
991.13	16.741
991.29	23.278
991.46	36.105
991.62	23.953
991.79	32.985
991.95	27.314
992.12	18.367
992.29	20.528
992.45	28.211
992.62	15.471
992.78	24.948
992.95	21.770
993.11	28.412
993.28	18.826
993.44	29.322
993.61	30.290
993.77	25.654
993.94	19.908
994.10	39.030
994.27	33.496
994.43	37.342
994.60	33.500
994.76	34.411
994.93	26.196
995.09	31.267
995.26	36.893
995.42	30.414
995.59	29.815
995.75	38.426
995.92	25.176
996.08	28.000
996.25	37.037
996.41	22.794
996.58	35.845
996.74	25.265
996.91	34.204
997.07	22.927
997.23	24.510
997.40	26.269
997.56	27.804
997.73	27.750
997.89	23.266
998.06	30.837
998.22	19.165
998.39	31.092
998.55	30.023
998.72	30.140
998.88	40.750
999.05	24.356
999.21	32.220
999.37	27.128
999.54	33.838
999.70	32.166
999.87	32.412
1000.03	36.530
1000.20	33.894
1000.36	29.257
1000.52	32.427
1000.69	34.949
1000.85	29.158
1001.02	23.059
1001.18	30.402
1001.35	40.552
1001.51	28.062
1001.67	22.272
1001.84	27.637
1002.00	23.739
1002.17	22.477
1002.33	31.850
1002.50	27.991
1002.66	32.938
1002.82	41.206
1002.99	25.067
1003.15	35.840
1003.32	33.333
1003.48	40.191
1003.64	24.682
1003.81	38.483
1003.97	28.082
1004.14	43.602
1004.30	39.558
1004.46	44.386
1004.63	39.610
1004.79	34.211
1004.95	33.162
1005.12	36.813
1005.28	40.576
1005.45	44.240
1005.61	39.364
1005.77	33.005
1005.94	38.789
1006.10	38.791
1006.26	34.293
1006.43	38.863
1006.59	41.573
1006.76	35.356
1006.92	50.118
1007.08	38.517
1007.25	39.514
1007.41	34.772
1007.57	33.088
1007.74	47.859
1007.90	39.691
1008.06	44.010
1008.23	36.923
1008.39	38.912
1008.55	41.935
1008.72	39.900
1008.88	47.111
1009.04	43.413
1009.21	44.153
1009.37	39.737
1009.53	47.722
1009.70	46.505
1009.86	49.471
1010.02	40.091
1010.19	48.000
1010.35	52.802
1010.51	61.575
1010.68	45.455
1010.84	51.444
1011.00	57.179
1011.17	47.368
1011.33	50.856
1011.49	43.220
1011.66	50.513
1011.82	51.918
1011.98	61.329
1012.14	47.123
1012.31	58.407
1012.47	52.685
1012.63	48.276
1012.80	40.741
1012.96	44.385
1013.12	51.667
1013.29	53.463
1013.45	41.253
1013.61	42.636
1013.77	49.612
1013.94	55.352
1014.10	40.606
1014.26	42.574
1014.43	42.308
1014.59	44.837
1014.75	53.627
1014.91	45.538
1015.08	41.889
1015.24	45.058
1015.40	48.500
1015.56	52.632
1015.73	42.222
1015.89	51.344
1016.05	52.607
1016.21	43.188
1016.38	49.330
1016.54	55.848
1016.70	40.882
1016.86	57.471
1017.03	49.046
1017.19	43.392
1017.35	55.660
1017.51	47.945
1017.68	56.104
1017.84	46.353
1018.00	52.480
1018.16	58.889
1018.33	58.708
1018.49	65.397
1018.65	44.687
1018.81	53.823
1018.97	56.941
1019.14	52.316
1019.30	63.456
1019.46	51.203
1019.62	62.500
1019.79	55.799
1019.95	52.185
1020.11	64.174
1020.27	56.066
1020.43	63.860
1020.60	70.455
1020.76	81.648
1020.92	65.266
1021.08	62.829
1021.24	59.938
1021.41	59.667
1021.57	63.506
1021.73	65.246
1021.89	66.447
1022.05	54.007
1022.21	66.389
1022.38	56.571
1022.54	57.307
1022.70	65.333
1022.86	80.403
1023.02	73.913
1023.19	75.000
1023.35	75.884
1023.51	69.231
1023.67	72.384
1023.83	76.336
1023.99	55.634
1024.16	69.841
1024.32	76.375
1024.48	66.312
1024.64	60.265
1024.80	74.113
1024.96	52.469
1025.12	57.680
1025.29	61.131
1025.45	65.714
1025.61	51.290
1025.77	59.206
1025.93	84.472
1026.09	66.795
1026.26	70.946
1026.42	84.836
1026.58	64.706
1026.74	69.804
1026.90	61.631
1027.06	70.297
1027.22	79.195
1027.38	79.078
1027.55	95.146
1027.71	67.442
1027.87	88.475
1028.03	80.876
1028.19	71.186
1028.35	72.325
1028.51	78.247
1028.67	76.426
1028.83	67.532
1029.00	62.759
1029.16	83.750
1029.32	58.271
1029.48	73.047
1029.64	84.262
1029.80	86.179
1029.96	84.127
1030.12	80.952
1030.28	71.579
1030.44	67.857
1030.61	64.557
1030.77	69.262
1030.93	95.635
1031.09	61.569
1031.25	88.832
1031.41	63.855
1031.57	68.776
1031.73	72.500
1031.89	74.205
1032.05	57.303
1032.21	70.204
1032.37	66.547
1032.53	81.648
1032.69	80.687
1032.86	75.481
1033.02	57.807
1033.18	81.154
1033.34	66.667
1033.50	51.813
1033.66	65.660
1033.82	63.370
1033.98	48.707
1034.14	86.175
1034.30	66.794
1034.46	58.647
1034.62	73.333
1034.78	67.647
1034.94	50.903
1035.10	68.932
1035.26	58.419
1035.42	73.841
1035.58	76.173
1035.74	70.954
1035.90	96.098
1036.06	62.547
1036.22	67.176
1036.38	74.449
1036.54	63.934
1036.70	55.833
1036.86	90.722
1037.02	67.399
1037.18	77.619
1037.34	71.032
1037.50	91.262
1037.66	72.105
1037.82	70.486
1037.98	74.194
1038.14	87.845
1038.30	62.692
1038.46	80.935
1038.62	72.770
1038.78	68.269
1038.94	96.552
1039.10	88.995
1039.26	90.086
1039.42	72.936
1039.58	105.917
1039.74	80.335
1039.90	72.000
1040.06	89.756
>>>>>End Processed Spectral Data<<<<<
