SpectraSuite Data File
++++++++++++++++++++++++++++++++++++
Date: Wed Jan 25 18:49:03 EET 2017
User: TheoProf
Dark Spectrum Present: Yes
Reference Spectrum Present: Yes
Number of Sampled Component Spectra: 1
Spectrometers: USB4C02475
Integration Time (usec): 64136 (USB4C02475)
Spectra Averaged: 1 (USB4C02475)
Boxcar Smoothing: 0 (USB4C02475)
Correct for Electrical Dark: No (USB4C02475)
Strobe/Lamp Enabled: No (USB4C02475)
Correct for Detector Non-linearity: No (USB4C02475)
Correct for Stray Light: No (USB4C02475)
Number of Pixels in Processed Spectrum: 3648
>>>>>Begin Processed Spectral Data<<<<<
344.91	300.000
345.13	300.000
345.35	300.000
345.57	357.143
345.79	700.000
346.00	-15.789
346.22	250.000
346.44	62.069
346.66	-60.000
346.87	79.310
347.09	600.000
347.31	73.913
347.53	-33.333
347.74	86.842
347.96	25.000
348.18	300.000
348.40	152.632
348.61	184.615
348.83	18.182
349.05	32.787
349.27	-12.500
349.48	-158.824
349.70	17.647
349.92	90.323
350.14	47.541
350.35	48.148
350.57	66.667
350.79	-17.647
351.01	40.000
351.22	-370.000
351.44	29.487
351.66	-80.000
351.87	155.556
352.09	-87.500
352.31	-42.857
352.53	11.667
352.74	-20.690
352.96	106.000
353.18	9.756
353.40	1200.000
353.61	-7.143
353.83	345.455
354.05	310.000
354.26	69.697
354.48	-2.381
354.70	-15.789
354.92	-96.154
355.13	110.345
355.35	3.774
355.57	33.333
355.78	29.032
356.00	79.167
356.22	87.671
356.44	28.125
356.65	38.462
356.87	88.462
357.09	4.000
357.30	-31.633
357.52	516.667
357.74	43.636
357.95	37.500
358.17	97.727
358.39	-39.535
358.60	78.125
358.82	146.154
359.04	140.000
359.26	-9.804
359.47	52.778
359.69	30.693
359.91	-5.000
360.12	-90.000
360.34	5.405
360.56	216.667
360.77	17.949
360.99	22.414
361.21	16.071
361.42	0.000
361.64	-212.500
361.86	-75.000
362.07	46.341
362.29	13.636
362.51	21.429
362.72	346.154
362.94	73.846
363.16	13.636
363.37	-65.625
363.59	-24.000
363.81	56.250
364.02	85.714
364.24	-200.000
364.46	0.000
364.67	100.000
364.89	-93.939
365.11	18.519
365.32	75.000
365.54	21.053
365.76	26.437
365.97	36.364
366.19	72.727
366.41	-250.000
366.62	28.571
366.84	571.429
367.05	-25.455
367.27	81.818
367.49	48.387
367.70	65.714
367.92	44.737
368.14	33.333
368.35	-58.824
368.57	41.772
368.79	77.358
369.00	75.510
369.22	200.000
369.43	42.188
369.65	-65.000
369.87	14.286
370.08	-22.222
370.30	-80.000
370.51	540.000
370.73	0.000
370.95	-42.308
371.16	42.593
371.38	262.500
371.60	533.333
371.81	73.684
372.03	53.623
372.24	-75.000
372.46	-10.345
372.68	-154.167
372.89	-19.298
373.11	-37.288
373.32	-11.111
373.54	-23.684
373.76	46.939
373.97	18.919
374.19	-115.385
374.40	-18.966
374.62	-21.875
374.84	68.000
375.05	112.963
375.27	42.000
375.48	-76.471
375.70	100.000
375.92	42.308
376.13	33.333
376.35	42.857
376.56	-242.857
376.78	138.636
376.99	18.462
377.21	-13.953
377.43	30.769
377.64	12.987
377.86	28.571
378.07	80.000
378.29	15.909
378.51	19.753
378.72	58.904
378.94	50.000
379.15	66.667
379.37	34.000
379.58	-87.500
379.80	85.417
380.01	-23.684
380.23	-15.556
380.45	-42.105
380.66	-4.348
380.88	-81.818
381.09	12.500
381.31	-71.875
381.52	-230.435
381.74	44.211
381.95	-240.000
382.17	-22.727
382.39	32.759
382.60	7.143
382.82	-52.000
383.03	-193.750
383.25	-12.500
383.46	-131.579
383.68	18.182
383.89	40.000
384.11	32.203
384.32	-25.581
384.54	45.455
384.76	86.957
384.97	7.843
385.19	58.333
385.40	29.032
385.62	-22.414
385.83	22.222
386.05	31.667
386.26	-92.593
386.48	36.066
386.69	32.099
386.91	0.000
387.12	-23.077
387.34	-7.692
387.55	-166.667
387.77	54.795
387.98	16.667
388.20	5.263
388.41	8.571
388.63	72.000
388.84	66.176
389.06	-10.606
389.27	61.386
389.49	-1.538
389.70	25.490
389.92	-19.643
390.13	53.061
390.35	57.353
390.56	29.412
390.78	31.818
390.99	-1.408
391.21	-5.882
391.42	-12.346
391.64	-77.500
391.85	98.611
392.07	187.500
392.28	52.459
392.50	-11.111
392.71	-62.903
392.93	31.034
393.14	36.792
393.36	1.887
393.57	-8.602
393.79	-2500.000
394.00	37.255
394.22	-27.778
394.43	25.806
394.65	-16.129
394.86	-2.885
395.08	59.494
395.29	7.059
395.50	-2.439
395.72	-96.774
395.93	0.752
396.15	26.613
396.36	14.943
396.58	15.652
396.79	14.865
397.01	59.375
397.22	16.418
397.44	17.647
397.65	42.500
397.87	-21.622
398.08	11.966
398.29	1.471
398.51	12.000
398.72	34.091
398.94	-18.421
399.15	-17.822
399.37	35.075
399.58	-2.128
399.80	-2.941
400.01	13.095
400.22	38.889
400.44	14.444
400.65	11.029
400.87	6.034
401.08	-8.333
401.30	-16.667
401.51	17.742
401.72	19.355
401.94	8.621
402.15	-16.379
402.37	21.698
402.58	5.556
402.80	-23.288
403.01	-25.926
403.22	28.421
403.44	12.121
403.65	62.500
403.87	32.143
404.08	27.564
404.30	21.538
404.51	39.831
404.72	36.879
404.94	31.298
405.15	28.378
405.37	40.945
405.58	-38.571
405.79	-23.158
406.01	20.915
406.22	8.000
406.44	44.681
406.65	23.750
406.86	11.258
407.08	1.852
407.29	13.158
407.51	20.513
407.72	-3.472
407.93	-1.974
408.15	17.791
408.36	0.000
408.58	18.919
408.79	17.606
409.00	0.000
409.22	-4.372
409.43	-17.021
409.64	-11.719
409.86	-10.494
410.07	-1.266
410.29	16.822
410.50	-36.441
410.71	-1.961
410.93	18.717
411.14	-19.632
411.35	-7.843
411.57	-16.265
411.78	-4.734
412.00	12.587
412.21	-3.425
412.42	24.551
412.64	-3.030
412.85	8.772
413.06	-7.339
413.28	-1.333
413.49	8.213
413.70	-8.475
413.92	13.103
414.13	-3.571
414.34	1.571
414.56	-9.202
414.77	35.294
414.98	2.618
415.20	7.514
415.41	-4.444
415.63	4.386
415.84	3.922
416.05	26.957
416.27	5.909
416.48	7.787
416.69	0.901
416.91	-2.415
417.12	24.479
417.33	-5.485
417.55	-19.186
417.76	-10.920
417.97	10.244
418.19	18.478
418.40	-6.593
418.61	22.689
418.83	2.262
419.04	9.009
419.25	21.311
419.46	2.183
419.68	14.286
419.89	0.535
420.10	8.368
420.32	12.749
420.53	2.008
420.74	10.769
420.96	13.546
421.17	1.186
421.38	7.280
421.60	8.333
421.81	12.083
422.02	11.494
422.23	0.830
422.45	5.926
422.66	16.250
422.87	-3.817
423.09	-14.097
423.30	10.185
423.51	12.546
423.73	16.017
423.94	35.986
424.15	12.741
424.36	10.312
424.58	11.765
424.79	4.950
425.00	9.507
425.22	21.333
425.43	14.493
425.64	7.143
425.85	-4.858
426.07	3.470
426.28	-4.110
426.49	0.000
426.71	8.480
426.92	-1.183
427.13	-4.620
427.34	13.030
427.56	5.952
427.77	-1.953
427.98	-6.048
428.19	0.772
428.41	-1.024
428.62	-1.370
428.83	23.955
429.04	-0.621
429.26	12.389
429.47	16.000
429.68	1.538
429.89	7.738
430.11	-0.521
430.32	13.193
430.53	20.952
430.74	4.658
430.96	18.063
431.17	15.100
431.38	-1.935
431.59	3.670
431.81	7.258
432.02	-1.966
432.23	15.000
432.44	6.667
432.66	10.056
432.87	1.520
433.08	13.657
433.29	17.513
433.51	15.441
433.72	22.248
433.93	19.580
434.14	26.995
434.35	28.571
434.57	25.367
434.78	31.807
434.99	35.991
435.20	38.447
435.42	56.148
435.63	52.952
435.84	55.822
436.05	58.554
436.26	46.718
436.48	54.019
436.69	56.596
436.90	42.610
437.11	40.968
437.32	44.050
437.54	47.609
437.75	56.660
437.96	40.120
438.17	52.983
438.38	56.627
438.60	43.843
438.81	40.964
439.02	44.071
439.23	42.593
439.44	40.430
439.66	41.071
439.87	43.605
440.08	56.818
440.29	50.194
440.50	45.049
440.72	41.640
440.93	43.137
441.14	48.566
441.35	59.109
441.56	51.872
441.77	53.202
441.99	50.249
442.20	58.244
442.41	58.140
442.62	61.552
442.83	63.176
443.04	61.538
443.26	61.244
443.47	63.459
443.68	70.370
443.89	72.744
444.10	69.176
444.31	68.966
444.53	69.950
444.74	67.722
444.95	79.928
445.16	70.470
445.37	73.786
445.58	72.097
445.80	83.683
446.01	84.330
446.22	82.222
446.43	73.926
446.64	74.732
446.85	79.847
447.06	69.844
447.28	87.135
447.49	90.881
447.70	83.180
447.91	78.884
448.12	78.533
448.33	81.655
448.54	77.280
448.76	83.499
448.97	78.702
449.18	82.068
449.39	80.245
449.60	81.882
449.81	86.458
450.02	79.831
450.23	79.818
450.45	74.737
450.66	75.597
450.87	82.413
451.08	73.267
451.29	87.065
451.50	77.997
451.71	78.954
451.92	72.917
452.13	81.592
452.35	77.249
452.56	71.910
452.77	80.129
452.98	84.110
453.19	84.674
453.40	82.940
453.61	84.027
453.82	84.974
454.03	79.387
454.25	85.419
454.46	89.853
454.67	83.971
454.88	71.134
455.09	77.640
455.30	77.278
455.51	81.186
455.72	82.824
455.93	90.000
456.14	86.612
456.35	81.523
456.56	95.050
456.78	80.879
456.99	86.443
457.20	76.080
457.41	82.321
457.62	77.998
457.83	82.857
458.04	82.672
458.25	85.285
458.46	86.908
458.67	81.110
458.88	89.776
459.09	85.106
459.30	84.222
459.51	87.275
459.73	94.681
459.94	84.113
460.15	92.843
460.36	91.506
460.57	85.959
460.78	87.523
460.99	86.987
461.20	79.932
461.41	82.152
461.62	89.061
461.83	85.851
462.04	83.890
462.25	85.424
462.46	92.545
462.67	86.457
462.88	88.562
463.09	92.705
463.30	82.437
463.51	96.894
463.72	84.072
463.93	87.766
464.15	84.462
464.36	82.205
464.57	82.490
464.78	81.131
464.99	75.279
465.20	83.678
465.41	88.528
465.62	82.939
465.83	92.918
466.04	94.331
466.25	87.684
466.46	94.060
466.67	93.121
466.88	84.745
467.09	83.825
467.30	83.311
467.51	79.340
467.72	83.588
467.93	85.862
468.14	82.143
468.35	81.378
468.56	81.364
468.77	83.171
468.98	83.675
469.19	85.363
469.40	92.927
469.61	83.281
469.82	86.671
470.03	83.313
470.24	85.150
470.45	84.346
470.66	85.485
470.87	89.910
471.08	95.485
471.29	95.379
471.50	86.983
471.71	87.784
471.92	86.759
472.13	86.633
472.34	89.789
472.55	86.427
472.76	88.832
472.97	84.156
473.18	87.683
473.39	83.469
473.60	84.839
473.81	82.243
474.01	85.481
474.22	86.357
474.43	84.065
474.64	89.544
474.85	81.921
475.06	82.312
475.27	83.818
475.48	80.278
475.69	77.863
475.90	81.314
476.11	82.440
476.32	83.650
476.53	83.640
476.74	87.382
476.95	85.550
477.16	80.649
477.37	88.327
477.58	80.405
477.79	81.054
478.00	82.388
478.21	83.333
478.41	83.213
478.62	80.480
478.83	84.702
479.04	81.833
479.25	81.067
479.46	80.969
479.67	81.272
479.88	77.200
480.09	79.250
480.30	80.717
480.51	72.898
480.72	72.230
480.93	68.580
481.14	62.589
481.34	58.047
481.55	59.106
481.76	55.302
481.97	53.526
482.18	51.142
482.39	44.004
482.60	41.536
482.81	38.646
483.02	36.452
483.23	31.086
483.44	28.595
483.65	25.300
483.85	21.845
484.06	19.969
484.27	16.988
484.48	16.474
484.69	12.697
484.90	10.870
485.11	8.505
485.32	7.431
485.53	6.382
485.73	6.712
485.94	5.320
486.15	4.079
486.36	4.647
486.57	4.357
486.78	3.650
486.99	3.354
487.20	2.576
487.41	1.474
487.61	3.134
487.82	3.468
488.03	4.021
488.24	2.860
488.45	2.729
488.66	2.223
488.87	4.584
489.08	3.859
489.28	3.886
489.49	2.869
489.70	3.973
489.91	2.572
490.12	3.208
490.33	3.108
490.54	3.542
490.74	3.186
490.95	2.337
491.16	3.582
491.37	1.455
491.58	3.377
491.79	2.569
492.00	2.420
492.20	3.055
492.41	2.207
492.62	2.007
492.83	3.177
493.04	2.178
493.25	1.635
493.45	1.215
493.66	1.881
493.87	2.822
494.08	1.010
494.29	1.933
494.50	1.950
494.70	2.929
494.91	1.794
495.12	1.372
495.33	1.595
495.54	1.369
495.75	1.458
495.95	0.973
496.16	1.384
496.37	1.252
496.58	0.482
496.79	2.490
496.99	2.044
497.20	1.907
497.41	2.234
497.62	1.819
497.83	1.379
498.04	1.007
498.24	2.201
498.45	0.783
498.66	1.895
498.87	1.862
499.08	1.239
499.28	1.449
499.49	1.480
499.70	1.272
499.91	0.808
500.12	0.756
500.32	0.724
500.53	0.887
500.74	1.041
500.95	0.807
501.15	0.942
501.36	2.139
501.57	1.046
501.78	0.720
501.99	1.443
502.19	0.244
502.40	1.163
502.61	1.107
502.82	0.864
503.02	0.559
503.23	0.760
503.44	0.699
503.65	1.573
503.86	1.298
504.06	1.006
504.27	1.048
504.48	0.975
504.69	0.202
504.89	1.488
505.10	1.267
505.31	1.310
505.52	1.263
505.72	0.868
505.93	2.178
506.14	0.741
506.35	0.769
506.55	1.728
506.76	0.950
506.97	1.498
507.18	1.390
507.38	2.014
507.59	1.202
507.80	0.276
508.01	1.575
508.21	0.150
508.42	0.557
508.63	0.563
508.84	1.195
509.04	0.422
509.25	0.750
509.46	1.363
509.67	0.888
509.87	1.016
510.08	1.251
510.29	0.382
510.49	0.560
510.70	0.670
510.91	1.307
511.12	0.735
511.32	0.890
511.53	0.388
511.74	1.330
511.94	1.346
512.15	0.167
512.36	0.879
512.57	0.650
512.77	0.407
512.98	0.216
513.19	0.980
513.39	0.497
513.60	1.032
513.81	0.045
514.01	0.778
514.22	1.489
514.43	1.360
514.64	1.640
514.84	0.222
515.05	1.022
515.26	1.220
515.46	0.886
515.67	1.240
515.88	0.989
516.08	0.472
516.29	0.564
516.50	1.451
516.70	0.885
516.91	1.642
517.12	0.403
517.32	1.326
517.53	1.378
517.74	0.924
517.95	0.815
518.15	1.504
518.36	0.462
518.57	0.569
518.77	0.539
518.98	1.538
519.19	1.256
519.39	1.211
519.60	1.149
519.80	1.645
520.01	1.237
520.22	1.760
520.42	1.540
520.63	0.962
520.84	1.095
521.04	0.906
521.25	0.699
521.46	1.388
521.66	1.404
521.87	0.568
522.08	1.458
522.28	1.523
522.49	1.610
522.70	1.336
522.90	1.321
523.11	0.929
523.31	1.430
523.52	1.478
523.73	1.756
523.93	1.856
524.14	0.694
524.35	1.811
524.55	1.842
524.76	1.212
524.97	2.221
525.17	1.283
525.38	1.770
525.58	1.621
525.79	1.192
526.00	1.749
526.20	1.922
526.41	1.633
526.61	1.740
526.82	2.246
527.03	2.938
527.23	2.431
527.44	3.263
527.64	3.067
527.85	3.659
528.06	4.906
528.26	4.924
528.47	6.413
528.68	6.867
528.88	7.808
529.09	8.903
529.29	11.227
529.50	11.536
529.70	13.129
529.91	12.980
530.12	15.666
530.32	16.625
530.53	18.149
530.73	21.518
530.94	22.645
531.15	25.751
531.35	26.966
531.56	27.852
531.76	29.891
531.97	31.330
532.17	31.057
532.38	32.285
532.59	33.028
532.79	34.761
533.00	35.876
533.20	37.175
533.41	37.857
533.61	39.502
533.82	40.524
534.03	41.973
534.23	42.700
534.44	44.081
534.64	44.224
534.85	45.983
535.05	45.585
535.26	46.290
535.46	46.040
535.67	45.801
535.88	47.567
536.08	45.731
536.29	45.760
536.49	45.514
536.70	47.709
536.90	48.577
537.11	49.744
537.31	53.324
537.52	57.303
537.72	60.263
537.93	61.391
538.13	64.286
538.34	70.145
538.55	71.430
538.75	73.149
538.96	74.733
539.16	75.520
539.37	78.213
539.57	79.042
539.78	82.245
539.98	83.615
540.19	88.812
540.39	88.389
540.60	92.473
540.80	94.779
541.01	95.771
541.21	94.750
541.42	97.891
541.62	94.694
541.83	94.307
542.03	91.909
542.24	91.603
542.44	88.410
542.65	88.384
542.85	87.353
543.06	87.149
543.26	87.986
543.47	88.214
543.67	89.946
543.88	91.617
544.08	90.140
544.29	88.158
544.49	87.775
544.70	89.174
544.90	92.786
545.11	95.816
545.31	97.381
545.52	96.859
545.72	94.441
545.93	90.306
546.13	89.789
546.34	88.772
546.54	88.429
546.75	92.303
546.95	95.423
547.15	99.760
547.36	97.662
547.56	96.778
547.77	97.060
547.97	96.561
548.18	96.295
548.38	93.092
548.59	92.972
548.79	93.157
549.00	95.062
549.20	94.792
549.41	95.912
549.61	93.604
549.81	90.402
550.02	87.155
550.22	85.162
550.43	84.409
550.63	86.138
550.84	86.578
551.04	86.072
551.25	86.641
551.45	86.922
551.65	88.150
551.86	86.646
552.06	87.465
552.27	88.084
552.47	89.938
552.68	91.111
552.88	93.336
553.08	93.820
553.29	93.236
553.49	95.194
553.70	93.733
553.90	95.002
554.11	95.706
554.31	95.649
554.51	96.224
554.72	94.538
554.92	96.348
555.13	97.913
555.33	94.539
555.53	96.298
555.74	95.516
555.94	92.942
556.15	92.550
556.35	90.639
556.56	92.321
556.76	91.364
556.96	95.550
557.17	94.639
557.37	93.791
557.58	95.573
557.78	95.467
557.98	96.077
558.19	99.141
558.39	98.588
558.59	94.007
558.80	92.300
559.00	93.010
559.21	92.642
559.41	91.758
559.61	89.773
559.82	89.768
560.02	90.270
560.23	88.353
560.43	89.397
560.63	89.278
560.84	91.208
561.04	95.287
561.24	96.147
561.45	99.097
561.65	98.507
561.85	98.010
562.06	96.901
562.26	94.608
562.47	93.308
562.67	92.176
562.87	91.592
563.08	90.916
563.28	91.773
563.48	91.639
563.69	90.756
563.89	92.697
564.09	93.312
564.30	93.776
564.50	93.461
564.70	92.837
564.91	91.850
565.11	90.818
565.31	89.556
565.52	86.615
565.72	86.376
565.92	84.922
566.13	84.897
566.33	86.940
566.53	88.300
566.74	90.142
566.94	92.385
567.14	94.094
567.35	95.623
567.55	94.269
567.75	93.979
567.96	91.406
568.16	89.030
568.36	87.492
568.57	89.340
568.77	90.711
568.97	90.539
569.18	91.515
569.38	92.022
569.58	91.011
569.79	91.129
569.99	90.895
570.19	92.635
570.39	93.638
570.60	92.029
570.80	91.197
571.00	89.488
571.21	89.152
571.41	90.181
571.61	91.831
571.82	88.912
572.02	90.299
572.22	89.829
572.42	88.870
572.63	90.340
572.83	91.958
573.03	89.394
573.24	90.629
573.44	88.748
573.64	88.526
573.84	90.302
574.05	92.799
574.25	94.055
574.45	94.957
574.66	94.703
574.86	95.527
575.06	96.127
575.26	94.917
575.47	94.025
575.67	90.239
575.87	89.141
576.07	89.160
576.28	88.477
576.48	86.621
576.68	88.583
576.88	89.661
577.09	92.309
577.29	93.716
577.49	92.784
577.69	91.139
577.90	90.244
578.10	91.740
578.30	90.157
578.50	89.181
578.71	88.921
578.91	88.243
579.11	90.546
579.31	92.252
579.52	95.101
579.72	96.903
579.92	93.295
580.12	90.758
580.33	87.608
580.53	86.885
580.73	84.280
580.93	84.699
581.13	85.259
581.34	86.150
581.54	90.176
581.74	91.824
581.94	93.002
582.15	91.782
582.35	89.514
582.55	86.719
582.75	86.021
582.95	85.451
583.16	84.554
583.36	82.971
583.56	81.549
583.76	80.536
583.96	79.562
584.17	79.378
584.37	78.923
584.57	78.071
584.77	76.187
584.97	73.696
585.18	68.146
585.38	65.344
585.58	62.069
585.78	61.106
585.98	62.181
586.19	61.353
586.39	60.890
586.59	59.277
586.79	53.700
586.99	48.541
587.20	43.995
587.40	40.949
587.60	37.082
587.80	35.277
588.00	32.508
588.20	30.042
588.41	27.894
588.61	25.870
588.81	22.639
589.01	19.797
589.21	17.072
589.41	15.621
589.62	13.699
589.82	12.338
590.02	10.489
590.22	9.690
590.42	9.009
590.62	7.755
590.83	6.551
591.03	5.757
591.23	5.138
591.43	4.497
591.63	4.079
591.83	3.479
592.03	2.828
592.24	2.706
592.44	2.096
592.64	2.142
592.84	1.687
593.04	1.650
593.24	1.641
593.44	1.548
593.65	1.742
593.85	1.591
594.05	1.388
594.25	1.323
594.45	1.033
594.65	1.019
594.85	1.133
595.06	0.884
595.26	1.061
595.46	0.998
595.66	0.819
595.86	0.916
596.06	1.344
596.26	1.195
596.46	1.087
596.66	0.886
596.87	1.011
597.07	0.993
597.27	0.634
597.47	0.759
597.67	0.787
597.87	0.707
598.07	0.775
598.27	0.684
598.47	0.861
598.67	0.980
598.88	1.025
599.08	0.890
599.28	1.088
599.48	0.977
599.68	1.019
599.88	1.061
600.08	0.730
600.28	0.813
600.48	0.942
600.68	0.794
600.88	0.584
601.09	0.840
601.29	0.515
601.49	0.904
601.69	0.770
601.89	0.638
602.09	0.673
602.29	0.545
602.49	0.534
602.69	0.798
602.89	0.379
603.09	0.663
603.29	0.699
603.49	0.200
603.69	0.721
603.90	0.524
604.10	0.593
604.30	0.709
604.50	0.576
604.70	0.799
604.90	0.281
605.10	0.779
605.30	0.800
605.50	0.834
605.70	0.672
605.90	0.851
606.10	0.835
606.30	0.826
606.50	0.698
606.70	0.801
606.90	0.763
607.10	0.640
607.30	0.586
607.50	0.934
607.70	0.708
607.90	0.778
608.10	0.979
608.30	1.098
608.50	1.127
608.70	0.841
608.90	0.713
609.11	0.786
609.31	0.989
609.51	0.896
609.71	0.962
609.91	1.058
610.11	1.375
610.31	1.245
610.51	1.953
610.71	2.872
610.91	3.076
611.11	3.747
611.31	3.927
611.51	4.426
611.71	3.644
611.91	3.435
612.11	3.380
612.31	3.121
612.51	2.750
612.71	2.825
612.91	2.613
613.11	2.569
613.31	2.116
613.51	2.429
613.71	2.248
613.91	2.131
614.11	1.932
614.31	1.796
614.50	1.932
614.70	1.878
614.90	1.488
615.10	1.404
615.30	1.567
615.50	1.908
615.70	1.286
615.90	1.707
616.10	1.297
616.30	1.335
616.50	1.271
616.70	1.378
616.90	1.176
617.10	1.120
617.30	1.094
617.50	1.038
617.70	1.141
617.90	1.197
618.10	1.349
618.30	1.134
618.50	1.081
618.70	1.308
618.90	1.067
619.10	1.386
619.30	1.203
619.49	1.059
619.69	1.371
619.89	1.305
620.09	1.356
620.29	1.398
620.49	1.478
620.69	1.554
620.89	1.565
621.09	1.657
621.29	1.928
621.49	1.938
621.69	1.921
621.89	2.174
622.09	2.143
622.29	2.489
622.48	3.113
622.68	3.202
622.88	3.541
623.08	3.870
623.28	4.223
623.48	4.817
623.68	5.535
623.88	5.963
624.08	6.668
624.28	7.781
624.48	8.764
624.67	9.979
624.87	11.165
625.07	12.765
625.27	13.798
625.47	15.013
625.67	16.024
625.87	17.275
626.07	18.680
626.27	19.942
626.47	21.448
626.66	21.967
626.86	22.513
627.06	24.387
627.26	26.249
627.46	27.435
627.66	30.120
627.86	32.090
628.06	31.961
628.25	32.773
628.45	32.854
628.65	33.450
628.85	34.354
629.05	35.039
629.25	36.159
629.45	36.947
629.65	37.770
629.84	38.472
630.04	38.785
630.24	39.147
630.44	39.666
630.64	39.571
630.84	40.393
631.04	41.046
631.23	42.114
631.43	41.334
631.63	42.433
631.83	43.464
632.03	44.490
632.23	45.496
632.42	46.704
632.62	48.443
632.82	51.447
633.02	53.497
633.22	55.092
633.42	55.928
633.62	57.211
633.81	57.204
634.01	58.878
634.21	60.538
634.41	60.497
634.61	61.577
634.80	62.914
635.00	65.372
635.20	67.915
635.40	69.611
635.60	72.283
635.80	75.024
635.99	77.890
636.19	80.789
636.39	85.485
636.59	87.489
636.79	87.683
636.98	88.904
637.18	87.050
637.38	88.310
637.58	88.723
637.78	90.251
637.97	90.701
638.17	89.310
638.37	88.721
638.57	88.107
638.77	87.855
638.96	86.594
639.16	87.918
639.36	87.630
639.56	88.626
639.76	88.038
639.95	89.674
640.15	88.942
640.35	87.801
640.55	85.470
640.75	85.951
640.94	86.235
641.14	84.780
641.34	85.070
641.54	86.266
641.73	85.638
641.93	85.397
642.13	84.925
642.33	84.957
642.53	84.802
642.72	86.031
642.92	87.566
643.12	91.520
643.32	94.784
643.51	96.131
643.71	95.334
643.91	96.750
644.11	97.351
644.30	97.244
644.50	94.176
644.70	92.147
644.90	90.037
645.09	89.423
645.29	88.708
645.49	87.963
645.69	85.851
645.88	85.303
646.08	85.889
646.28	83.956
646.48	82.181
646.67	81.604
646.87	83.225
647.07	83.402
647.26	86.233
647.46	85.972
647.66	86.028
647.86	87.113
648.05	87.606
648.25	88.319
648.45	89.010
648.65	89.954
648.84	90.105
649.04	91.812
649.24	91.954
649.43	90.075
649.63	90.843
649.83	87.938
650.03	87.637
650.22	88.257
650.42	90.259
650.62	91.490
650.81	88.337
651.01	88.169
651.21	86.378
651.40	85.681
651.60	84.373
651.80	84.157
652.00	84.885
652.19	83.892
652.39	84.276
652.59	83.023
652.78	84.571
652.98	84.145
653.18	84.123
653.37	83.287
653.57	82.985
653.77	83.305
653.96	86.898
654.16	90.605
654.36	91.002
654.55	90.673
654.75	91.203
654.95	88.807
655.14	86.959
655.34	86.421
655.54	85.333
655.73	85.328
655.93	86.757
656.13	87.305
656.32	88.991
656.52	89.748
656.72	89.692
656.91	89.775
657.11	89.999
657.31	90.444
657.50	90.545
657.70	91.737
657.90	93.115
658.09	93.334
658.29	94.438
658.49	93.812
658.68	93.011
658.88	91.242
659.07	91.441
659.27	92.802
659.47	92.228
659.66	90.557
659.86	89.082
660.06	90.933
660.25	90.009
660.45	91.761
660.64	93.017
660.84	90.989
661.04	91.303
661.23	90.944
661.43	91.705
661.63	93.395
661.82	92.378
662.02	93.628
662.21	91.948
662.41	91.936
662.61	89.533
662.80	90.103
663.00	88.803
663.19	88.936
663.39	89.909
663.59	90.104
663.78	90.152
663.98	90.517
664.17	92.043
664.37	91.852
664.57	90.200
664.76	90.133
664.96	87.958
665.15	87.329
665.35	86.011
665.55	85.168
665.74	84.415
665.94	83.745
666.13	85.107
666.33	84.048
666.53	85.193
666.72	86.563
666.92	89.808
667.11	93.014
667.31	93.179
667.50	94.096
667.70	94.853
667.90	95.668
668.09	95.119
668.29	94.545
668.48	93.449
668.68	93.403
668.87	92.607
669.07	91.288
669.26	89.974
669.46	89.836
669.66	88.945
669.85	88.135
670.05	88.598
670.24	87.249
670.44	86.300
670.63	88.010
670.83	88.389
671.02	88.697
671.22	87.855
671.42	90.097
671.61	91.365
671.81	92.298
672.00	93.074
672.20	91.661
672.39	90.506
672.59	89.682
672.78	89.658
672.98	88.646
673.17	89.785
673.37	90.342
673.56	90.044
673.76	91.921
673.95	92.823
674.15	91.595
674.34	91.208
674.54	89.577
674.73	84.707
674.93	83.665
675.13	83.476
675.32	84.253
675.52	86.062
675.71	86.698
675.91	87.346
676.10	86.903
676.30	84.120
676.49	83.300
676.69	81.832
676.88	81.860
677.08	80.497
677.27	80.019
677.47	78.376
677.66	76.013
677.86	74.100
678.05	70.453
678.24	67.440
678.44	63.548
678.63	61.471
678.83	59.267
679.02	58.527
679.22	58.466
679.41	57.988
679.61	58.179
679.80	57.443
680.00	55.836
680.19	53.199
680.39	50.580
680.58	47.491
680.78	45.480
680.97	43.085
681.17	40.283
681.36	37.587
681.56	34.955
681.75	32.959
681.94	31.298
682.14	29.168
682.33	27.463
682.53	26.142
682.72	23.448
682.92	21.711
683.11	19.492
683.31	17.171
683.50	15.944
683.69	14.677
683.89	13.605
684.08	12.022
684.28	11.081
684.47	9.826
684.67	8.909
684.86	8.056
685.06	7.018
685.25	6.433
685.44	5.817
685.64	5.150
685.83	4.412
686.03	3.693
686.22	3.476
686.42	2.896
686.61	2.676
686.80	2.607
687.00	2.323
687.19	2.181
687.39	1.642
687.58	1.642
687.77	1.577
687.97	1.020
688.16	1.165
688.36	1.042
688.55	0.899
688.74	0.852
688.94	0.736
689.13	0.715
689.33	0.956
689.52	0.559
689.71	0.615
689.91	0.504
690.10	0.610
690.30	0.383
690.49	0.483
690.68	0.471
690.88	0.498
691.07	0.560
691.27	0.460
691.46	0.674
691.65	0.379
691.85	0.428
692.04	0.457
692.23	0.406
692.43	0.251
692.62	0.318
692.82	0.358
693.01	0.434
693.20	0.410
693.40	0.599
693.59	0.326
693.78	0.402
693.98	0.167
694.17	0.351
694.36	0.235
694.56	0.260
694.75	0.243
694.94	0.368
695.14	0.172
695.33	0.290
695.53	0.331
695.72	0.254
695.91	0.419
696.11	0.277
696.30	0.285
696.49	0.404
696.69	0.238
696.88	0.236
697.07	0.360
697.27	0.160
697.46	0.095
697.65	0.282
697.85	0.248
698.04	0.311
698.23	0.235
698.43	0.258
698.62	0.195
698.81	0.173
699.01	0.086
699.20	0.203
699.39	0.068
699.58	0.242
699.78	0.246
699.97	0.301
700.16	0.184
700.36	0.274
700.55	0.236
700.74	0.136
700.94	0.323
701.13	0.184
701.32	0.322
701.52	0.140
701.71	0.232
701.90	0.037
702.09	0.155
702.29	-0.016
702.48	0.302
702.67	0.230
702.87	0.126
703.06	0.152
703.25	0.272
703.44	0.085
703.64	0.000
703.83	0.210
704.02	0.216
704.22	0.094
704.41	0.227
704.60	0.167
704.79	0.018
704.99	0.174
705.18	0.166
705.37	0.096
705.56	0.188
705.76	0.232
705.95	0.374
706.14	0.163
706.33	0.012
706.53	0.126
706.72	0.238
706.91	0.151
707.11	0.251
707.30	0.034
707.49	0.150
707.68	0.092
707.88	0.135
708.07	0.074
708.26	0.161
708.45	0.276
708.64	0.267
708.84	0.213
709.03	0.179
709.22	0.436
709.41	0.275
709.61	-0.059
709.80	0.230
709.99	-0.060
710.18	0.318
710.38	0.065
710.57	0.130
710.76	0.088
710.95	0.246
711.14	-0.029
711.34	0.123
711.53	0.075
711.72	0.025
711.91	0.158
712.11	0.288
712.30	0.309
712.49	0.166
712.68	0.190
712.87	0.035
713.07	0.167
713.26	0.053
713.45	0.109
713.64	0.088
713.83	0.182
714.03	0.242
714.22	-0.099
714.41	-0.061
714.60	-0.069
714.79	-0.013
714.99	0.141
715.18	0.039
715.37	0.031
715.56	0.257
715.75	0.076
715.94	0.309
716.14	0.121
716.33	0.081
716.52	-0.068
716.71	0.073
716.90	0.258
717.10	0.027
717.29	0.250
717.48	0.036
717.67	0.040
717.86	0.235
718.05	0.004
718.24	0.071
718.44	-0.022
718.63	0.093
718.82	0.133
719.01	-0.142
719.20	0.142
719.39	-0.122
719.59	-0.081
719.78	0.109
719.97	0.111
720.16	-0.047
720.35	0.009
720.54	0.056
720.73	-0.229
720.93	0.379
721.12	0.047
721.31	0.279
721.50	0.117
721.69	-0.028
721.88	-0.168
722.07	0.005
722.27	-0.042
722.46	-0.284
722.65	0.033
722.84	-0.019
723.03	0.177
723.22	-0.076
723.41	0.051
723.60	-0.014
723.79	0.104
723.99	0.171
724.18	-0.102
724.37	0.042
724.56	0.090
724.75	0.052
724.94	0.151
725.13	0.127
725.32	-0.109
725.51	-0.081
725.71	-0.104
725.90	-0.114
726.09	-0.028
726.28	0.095
726.47	-0.076
726.66	0.058
726.85	0.064
727.04	-0.005
727.23	0.060
727.42	0.095
727.61	-0.054
727.81	0.161
728.00	0.308
728.19	-0.192
728.38	-0.208
728.57	0.201
728.76	-0.197
728.95	0.263
729.14	-0.030
729.33	0.000
729.52	0.146
729.71	0.050
729.90	-0.055
730.09	-0.355
730.28	-0.126
730.48	-0.061
730.67	0.086
730.86	0.041
731.05	-0.047
731.24	-0.084
731.43	0.005
731.62	0.130
731.81	0.158
732.00	0.097
732.19	-0.027
732.38	-0.102
732.57	0.080
732.76	-0.064
732.95	-0.031
733.14	0.204
733.33	-0.119
733.52	0.227
733.71	0.120
733.90	-0.047
734.09	0.046
734.28	-0.225
734.47	0.145
734.66	0.047
734.85	-0.146
735.04	-0.048
735.23	-0.060
735.42	0.144
735.61	0.175
735.81	-0.158
736.00	-0.057
736.19	-0.074
736.38	0.017
736.57	-0.152
736.76	-0.011
736.95	-0.038
737.14	-0.005
737.33	0.266
737.52	-0.036
737.71	-0.119
737.90	0.248
738.09	-0.260
738.28	0.016
738.47	-0.209
738.66	-0.040
738.85	-0.076
739.04	-0.146
739.22	-0.141
739.41	0.000
739.60	-0.150
739.79	0.279
739.98	0.132
740.17	0.176
740.36	0.151
740.55	0.072
740.74	0.000
740.93	0.203
741.12	-0.039
741.31	-0.114
741.50	0.126
741.69	0.069
741.88	0.215
742.07	-0.188
742.26	0.092
742.45	-0.012
742.64	0.086
742.83	0.343
743.02	-0.106
743.21	-0.006
743.40	0.066
743.59	0.175
743.78	0.051
743.97	-0.161
744.16	-0.040
744.34	0.033
744.53	0.328
744.72	0.127
744.91	0.303
745.10	0.123
745.29	-0.006
745.48	0.045
745.67	-0.082
745.86	0.263
746.05	0.108
746.24	0.114
746.43	-0.089
746.62	0.216
746.81	-0.052
747.00	0.130
747.18	0.019
747.37	-0.147
747.56	0.300
747.75	0.187
747.94	-0.119
748.13	0.292
748.32	0.246
748.51	0.014
748.70	-0.069
748.89	0.063
749.08	-0.048
749.26	-0.089
749.45	-0.240
749.64	0.007
749.83	-0.419
750.02	-0.007
750.21	-0.087
750.40	0.379
750.59	-0.059
750.78	0.126
750.96	0.331
751.15	0.210
751.34	0.149
751.53	-0.219
751.72	0.008
751.91	-0.022
752.10	-0.244
752.29	0.231
752.47	0.000
752.66	0.205
752.85	0.046
753.04	-0.198
753.23	0.056
753.42	0.064
753.61	0.032
753.80	-0.024
753.98	0.223
754.17	0.145
754.36	0.302
754.55	-0.413
754.74	0.163
754.93	0.009
755.12	-0.201
755.30	0.456
755.49	-0.064
755.68	-0.036
755.87	-0.426
756.06	0.412
756.25	-0.027
756.43	0.194
756.62	0.095
756.81	-0.086
757.00	0.329
757.19	0.257
757.38	-0.090
757.56	0.037
757.75	-0.113
757.94	0.224
758.13	0.097
758.32	0.603
758.51	0.178
758.69	-0.237
758.88	-0.179
759.07	0.172
759.26	0.203
759.45	0.114
759.63	0.421
759.82	0.401
760.01	0.202
760.20	-0.055
760.39	0.284
760.57	-0.232
760.76	0.033
760.95	0.328
761.14	0.169
761.33	-0.091
761.51	0.290
761.70	-0.197
761.89	0.607
762.08	0.451
762.27	0.105
762.45	-0.246
762.64	-0.095
762.83	0.360
763.02	-0.025
763.21	0.177
763.39	0.331
763.58	-0.510
763.77	-0.243
763.96	-0.090
764.14	0.331
764.33	0.091
764.52	0.026
764.71	-0.080
764.89	0.213
765.08	0.612
765.27	-0.534
765.46	0.000
765.65	0.212
765.83	-0.081
766.02	0.122
766.21	0.188
766.40	0.228
766.58	0.096
766.77	0.171
766.96	-0.159
767.15	-0.015
767.33	0.443
767.52	0.540
767.71	0.265
767.90	0.501
768.08	0.395
768.27	-0.433
768.46	-0.403
768.64	-0.016
768.83	-0.115
769.02	0.152
769.21	-0.623
769.39	0.085
769.58	-0.017
769.77	-0.565
769.96	0.341
770.14	0.085
770.33	0.067
770.52	0.423
770.70	-0.102
770.89	-0.669
771.08	-0.596
771.27	1.531
771.45	-0.017
771.64	-0.260
771.83	-0.204
772.01	-0.595
772.20	1.248
772.39	0.280
772.57	0.109
772.76	-0.603
772.95	0.547
773.14	0.315
773.32	0.240
773.51	0.379
773.70	0.170
773.88	0.039
774.07	-0.272
774.26	0.171
774.44	0.325
774.63	0.115
774.82	-0.137
775.00	-0.415
775.19	0.970
775.38	0.602
775.56	-0.800
775.75	0.614
775.94	-0.926
776.12	0.157
776.31	0.281
776.50	1.457
776.68	1.012
776.87	0.604
777.06	-0.691
777.24	-0.244
777.43	0.637
777.62	-0.021
777.80	-0.348
777.99	-0.932
778.18	1.043
778.36	-0.334
778.55	-0.145
778.74	0.495
778.92	-0.664
779.11	0.871
779.29	-0.245
779.48	0.721
779.67	-0.554
779.85	-0.020
780.04	0.225
780.23	0.616
780.41	0.203
780.60	-0.855
780.79	0.060
780.97	0.040
781.16	-0.393
781.34	-0.457
781.53	-0.020
781.72	0.333
781.90	-0.097
782.09	0.932
782.28	0.816
782.46	-0.059
782.65	-0.490
782.83	0.766
783.02	-0.662
783.21	0.316
783.39	0.674
783.58	-0.270
783.76	0.248
783.95	-0.057
784.14	0.392
784.32	0.479
784.51	-0.345
784.69	-0.341
784.88	0.073
785.06	-0.452
785.25	-0.178
785.44	-0.106
785.62	-0.966
785.81	0.814
785.99	-0.253
786.18	-0.148
786.37	0.186
786.55	0.860
786.74	-0.514
786.92	-0.099
787.11	0.218
787.29	-1.359
787.48	-0.796
787.67	-0.079
787.85	0.039
788.04	0.232
788.22	0.289
788.41	-0.355
788.59	0.075
788.78	-0.282
788.96	-0.173
789.15	-0.135
789.34	-0.440
789.52	-0.675
789.71	0.891
789.89	0.133
790.08	-0.367
790.26	0.506
790.45	-0.088
790.63	-0.071
790.82	-0.754
791.00	0.472
791.19	0.000
791.38	-0.054
791.56	0.160
791.75	-0.476
791.93	0.612
792.12	0.589
792.30	-0.471
792.49	0.103
792.67	0.121
792.86	-0.017
793.04	0.949
793.23	-0.052
793.41	0.104
793.60	0.590
793.78	0.449
793.97	0.017
794.15	0.678
794.34	0.103
794.52	0.554
794.71	0.596
794.89	-0.250
795.08	0.455
795.26	-0.341
795.45	-0.173
795.63	0.403
795.82	0.388
796.00	0.222
796.19	0.236
796.37	-0.673
796.56	0.000
796.74	1.088
796.93	0.059
797.11	-0.334
797.30	0.561
797.48	-0.275
797.67	0.058
797.85	0.044
798.04	0.772
798.22	-0.105
798.41	-0.596
798.59	0.123
798.77	-0.107
798.96	-0.539
799.14	-0.601
799.33	0.227
799.51	-0.091
799.70	-0.239
799.88	0.303
800.07	-0.194
800.25	0.074
800.44	0.059
800.62	-0.177
800.80	0.073
800.99	0.163
801.17	-0.591
801.36	0.578
801.54	-0.471
801.73	-0.265
801.91	-0.277
802.10	-0.551
802.28	0.713
802.46	0.618
802.65	-0.532
802.83	0.376
803.02	0.371
803.20	0.470
803.39	0.333
803.57	0.134
803.75	-0.389
803.94	-0.289
804.12	-0.047
804.31	-0.265
804.49	-0.224
804.67	0.033
804.86	0.982
805.04	-0.034
805.23	0.318
805.41	0.000
805.59	0.454
805.78	-0.527
805.96	0.435
806.15	0.138
806.33	0.139
806.51	-0.520
806.70	0.228
806.88	0.046
807.07	0.494
807.25	0.632
807.43	0.142
807.62	0.479
807.80	-0.016
807.99	0.094
808.17	-0.015
808.35	-0.252
808.54	0.761
808.72	0.242
808.90	0.256
809.09	0.030
809.27	-0.181
809.46	-0.093
809.64	-0.076
809.82	-0.062
810.01	0.216
810.19	0.307
810.37	0.000
810.56	0.030
810.74	-0.165
810.92	-0.180
811.11	0.060
811.29	0.046
811.48	0.016
811.66	0.394
811.84	0.338
812.03	0.131
812.21	0.246
812.39	0.469
812.58	0.411
812.76	0.429
812.94	0.016
813.13	0.112
813.31	0.324
813.49	0.126
813.68	0.546
813.86	0.415
814.04	-0.358
814.23	0.266
814.41	-0.222
814.59	-0.430
814.78	-0.074
814.96	0.617
815.14	0.429
815.33	0.789
815.51	-0.770
815.69	0.747
815.87	-0.176
816.06	0.323
816.24	0.495
816.42	1.004
816.61	0.585
816.79	0.330
816.97	-0.435
817.16	0.311
817.34	1.177
817.52	-0.722
817.70	-0.225
817.89	1.171
818.07	0.307
818.25	0.422
818.44	0.217
818.62	0.786
818.80	-0.159
818.98	0.569
819.17	0.507
819.35	0.911
819.53	0.977
819.72	0.490
819.90	1.134
820.08	0.348
820.26	1.718
820.45	1.372
820.63	0.736
820.81	1.709
820.99	1.644
821.18	1.181
821.36	1.507
821.54	0.770
821.73	0.407
821.91	1.439
822.09	0.917
822.27	0.778
822.46	1.540
822.64	2.814
822.82	1.340
823.00	0.891
823.19	3.032
823.37	0.990
823.55	2.562
823.73	1.939
823.91	2.180
824.10	1.816
824.28	1.899
824.46	2.560
824.64	2.620
824.83	2.358
825.01	2.293
825.19	2.169
825.37	2.361
825.56	2.614
825.74	1.803
825.92	1.061
826.10	1.206
826.28	1.221
826.47	3.347
826.65	2.470
826.83	1.480
827.01	2.638
827.19	2.519
827.38	1.484
827.56	2.687
827.74	2.949
827.92	3.169
828.10	2.496
828.29	1.552
828.47	3.633
828.65	2.121
828.83	3.199
829.01	2.763
829.20	3.133
829.38	3.622
829.56	4.215
829.74	4.740
829.92	6.528
830.10	4.877
830.29	5.907
830.47	5.556
830.65	6.526
830.83	8.011
831.01	8.590
831.20	9.176
831.38	8.606
831.56	8.607
831.74	9.063
831.92	10.656
832.10	10.863
832.29	11.270
832.47	12.799
832.65	14.107
832.83	12.695
833.01	15.147
833.19	15.252
833.37	13.553
833.56	16.018
833.74	16.129
833.92	17.422
834.10	16.586
834.28	16.883
834.46	14.695
834.64	16.957
834.83	16.523
835.01	17.091
835.19	18.652
835.37	18.736
835.55	18.889
835.73	20.087
835.91	19.900
836.09	20.695
836.28	22.338
836.46	24.148
836.64	20.330
836.82	23.111
837.00	22.041
837.18	23.685
837.36	24.808
837.54	24.230
837.72	24.775
837.91	25.052
838.09	27.456
838.27	28.356
838.45	27.186
838.63	28.400
838.81	27.072
838.99	27.818
839.17	29.494
839.35	28.863
839.53	28.639
839.72	28.236
839.90	27.868
840.08	27.693
840.26	26.820
840.44	25.705
840.62	26.881
840.80	25.722
840.98	25.239
841.16	26.058
841.34	25.573
841.52	24.781
841.70	23.102
841.89	23.279
842.07	22.428
842.25	21.719
842.43	22.151
842.61	20.125
842.79	22.690
842.97	20.877
843.15	20.545
843.33	20.357
843.51	20.000
843.69	19.555
843.87	20.980
844.05	21.441
844.23	20.878
844.41	18.894
844.59	21.124
844.77	19.457
844.95	18.804
845.13	19.002
845.31	15.780
845.50	16.837
845.68	15.148
845.86	14.868
846.04	14.488
846.22	13.115
846.40	14.223
846.58	15.334
846.76	13.209
846.94	13.578
847.12	14.176
847.30	13.418
847.48	13.311
847.66	13.556
847.84	11.359
848.02	10.876
848.20	15.804
848.38	13.742
848.56	14.505
848.74	15.754
848.92	13.604
849.10	15.306
849.28	14.425
849.46	14.701
849.64	14.176
849.82	15.323
850.00	14.577
850.18	13.960
850.36	15.410
850.54	15.409
850.72	16.486
850.90	17.145
851.08	16.584
851.26	16.881
851.44	18.175
851.62	18.160
851.80	22.061
851.98	21.360
852.16	23.964
852.34	22.678
852.52	22.761
852.70	22.503
852.87	24.383
853.05	24.755
853.23	25.320
853.41	24.671
853.59	25.060
853.77	26.038
853.95	29.942
854.13	30.142
854.31	28.024
854.49	27.504
854.67	27.958
854.85	28.712
855.03	31.871
855.21	31.101
855.39	28.450
855.57	30.637
855.75	29.706
855.93	28.250
856.11	27.464
856.28	29.933
856.46	31.499
856.64	30.297
856.82	30.016
857.00	29.404
857.18	27.316
857.36	26.433
857.54	27.938
857.72	26.900
857.90	24.847
858.08	24.240
858.26	25.126
858.44	26.092
858.61	21.439
858.79	22.191
858.97	21.667
859.15	20.880
859.33	20.437
859.51	20.946
859.69	18.349
859.87	20.688
860.05	17.265
860.23	20.425
860.40	19.503
860.58	18.860
860.76	23.011
860.94	20.090
861.12	19.717
861.30	21.091
861.48	21.592
861.66	22.969
861.84	22.882
862.01	23.495
862.19	24.374
862.37	25.427
862.55	24.529
862.73	25.640
862.91	25.416
863.09	26.991
863.27	26.855
863.44	24.760
863.62	24.725
863.80	25.990
863.98	23.799
864.16	25.269
864.34	26.402
864.52	27.283
864.69	26.503
864.87	26.790
865.05	26.316
865.23	27.105
865.41	25.428
865.59	25.809
865.76	23.363
865.94	24.508
866.12	21.212
866.30	23.636
866.48	22.540
866.66	23.169
866.83	21.420
867.01	21.948
867.19	19.971
867.37	20.805
867.55	19.219
867.73	17.598
867.90	17.519
868.08	18.091
868.26	19.590
868.44	19.086
868.62	19.391
868.79	17.337
868.97	19.489
869.15	18.466
869.33	18.785
869.51	16.036
869.69	18.461
869.86	17.564
870.04	17.801
870.22	16.369
870.40	18.672
870.57	17.949
870.75	16.371
870.93	16.058
871.11	17.246
871.29	16.131
871.46	16.336
871.64	18.786
871.82	16.308
872.00	18.614
872.18	19.514
872.35	15.917
872.53	17.221
872.71	17.632
872.89	17.946
873.06	17.570
873.24	17.399
873.42	18.666
873.60	19.186
873.77	20.007
873.95	18.461
874.13	19.327
874.31	19.494
874.49	18.961
874.66	21.843
874.84	21.999
875.02	22.251
875.20	24.909
875.37	22.274
875.55	23.531
875.73	25.025
875.91	26.395
876.08	28.370
876.26	28.571
876.44	31.556
876.61	31.469
876.79	31.774
876.97	32.175
877.15	29.533
877.32	29.806
877.50	30.595
877.68	31.784
877.86	33.090
878.03	33.800
878.21	35.203
878.39	34.780
878.56	36.034
878.74	36.558
878.92	37.157
879.10	34.640
879.27	35.128
879.45	34.857
879.63	38.565
879.80	37.459
879.98	39.110
880.16	37.433
880.34	39.423
880.51	39.451
880.69	39.210
880.87	40.952
881.04	38.356
881.22	36.212
881.40	40.194
881.57	39.269
881.75	40.522
881.93	41.841
882.10	41.481
882.28	42.800
882.46	40.305
882.63	40.412
882.81	41.855
882.99	42.375
883.16	41.570
883.34	38.833
883.52	40.020
883.69	38.999
883.87	38.778
884.05	39.579
884.22	39.363
884.40	39.066
884.58	40.417
884.75	43.141
884.93	41.558
885.11	41.242
885.28	39.931
885.46	42.435
885.64	42.655
885.81	40.588
885.99	43.756
886.17	43.012
886.34	43.626
886.52	42.753
886.70	46.382
886.87	44.132
887.05	45.104
887.22	47.126
887.40	45.971
887.58	45.625
887.75	45.160
887.93	44.250
888.11	47.094
888.28	46.146
888.46	46.093
888.63	46.234
888.81	46.725
888.99	46.371
889.16	50.078
889.34	50.773
889.51	51.894
889.69	54.394
889.87	53.027
890.04	54.997
890.22	59.308
890.39	57.585
890.57	58.671
890.75	57.779
890.92	59.349
891.10	57.617
891.27	63.095
891.45	60.687
891.63	61.639
891.80	62.473
891.98	59.357
892.15	61.810
892.33	62.847
892.51	61.773
892.68	60.132
892.86	58.863
893.03	57.865
893.21	57.751
893.38	60.013
893.56	56.128
893.74	58.251
893.91	58.971
894.09	55.657
894.26	55.395
894.44	54.739
894.61	52.937
894.79	50.633
894.96	51.230
895.14	49.678
895.32	48.043
895.49	47.616
895.67	47.178
895.84	47.577
896.02	48.452
896.19	47.229
896.37	47.768
896.54	47.187
896.72	49.675
896.89	47.960
897.07	48.417
897.25	47.879
897.42	47.524
897.60	51.784
897.77	51.798
897.95	51.791
898.12	53.894
898.30	55.255
898.47	57.076
898.65	55.400
898.82	55.843
899.00	59.796
899.17	57.138
899.35	57.243
899.52	60.560
899.70	57.474
899.87	58.750
900.05	62.504
900.22	60.121
900.40	61.825
900.57	65.107
900.75	64.214
900.92	66.368
901.10	66.802
901.27	67.407
901.45	68.868
901.62	67.402
901.80	67.198
901.97	66.779
902.15	67.452
902.32	69.954
902.50	69.575
902.67	70.566
902.85	68.885
903.02	72.189
903.20	69.870
903.37	70.657
903.54	70.558
903.72	69.703
903.89	69.085
904.07	71.152
904.24	69.675
904.42	67.361
904.59	66.493
904.77	64.405
904.94	64.469
905.12	64.913
905.29	59.157
905.47	60.103
905.64	62.712
905.81	60.554
905.99	65.422
906.16	63.629
906.34	63.266
906.51	67.153
906.69	66.852
906.86	63.458
907.03	63.534
907.21	65.126
907.38	61.768
907.56	62.405
907.73	62.310
907.91	62.784
908.08	60.578
908.25	58.429
908.43	62.776
908.60	60.542
908.78	59.660
908.95	58.833
909.13	60.163
909.30	59.401
909.47	57.660
909.65	58.654
909.82	55.974
910.00	56.605
910.17	58.917
910.34	58.276
910.52	59.731
910.69	58.216
910.87	57.901
911.04	62.121
911.21	57.809
911.39	57.890
911.56	58.189
911.73	58.871
911.91	62.168
912.08	59.701
912.26	58.622
912.43	64.875
912.60	65.036
912.78	66.756
912.95	68.210
913.13	69.653
913.30	67.054
913.47	74.167
913.65	69.995
913.82	70.847
913.99	66.904
914.17	65.709
914.34	63.653
914.51	62.884
914.69	63.888
914.86	60.576
915.03	64.056
915.21	61.798
915.38	63.255
915.56	64.356
915.73	69.598
915.90	64.548
916.08	66.329
916.25	66.367
916.42	60.031
916.60	66.245
916.77	60.883
916.94	59.211
917.12	57.336
917.29	56.134
917.46	58.299
917.64	56.448
917.81	56.130
917.98	54.233
918.16	52.138
918.33	55.698
918.50	48.506
918.67	46.773
918.85	49.127
919.02	48.318
919.19	48.554
919.37	49.691
919.54	50.537
919.71	47.154
919.89	50.141
920.06	46.636
920.23	47.091
920.41	46.305
920.58	48.780
920.75	45.330
920.92	45.495
921.10	47.586
921.27	44.571
921.44	47.435
921.62	45.787
921.79	46.574
921.96	46.990
922.13	46.327
922.31	44.748
922.48	44.537
922.65	46.363
922.82	47.190
923.00	41.990
923.17	45.031
923.34	47.402
923.52	44.312
923.69	46.857
923.86	43.465
924.03	49.145
924.21	47.368
924.38	45.702
924.55	45.026
924.72	47.358
924.90	48.929
925.07	48.763
925.24	46.605
925.41	53.523
925.59	49.788
925.76	50.276
925.93	52.500
926.10	48.942
926.28	45.487
926.45	47.029
926.62	46.943
926.79	46.392
926.96	43.188
927.14	44.265
927.31	43.006
927.48	43.487
927.65	44.037
927.83	44.802
928.00	43.095
928.17	47.658
928.34	45.894
928.51	45.434
928.69	44.343
928.86	46.447
929.03	41.407
929.20	43.884
929.37	43.065
929.55	41.348
929.72	43.101
929.89	43.014
930.06	45.575
930.23	46.057
930.41	44.120
930.58	44.881
930.75	46.755
930.92	47.098
931.09	47.265
931.27	45.113
931.44	43.017
931.61	39.610
931.78	43.213
931.95	44.524
932.12	41.688
932.30	41.382
932.47	37.859
932.64	38.949
932.81	42.294
932.98	46.113
933.16	44.028
933.33	45.479
933.50	43.248
933.67	44.027
933.84	43.671
934.01	42.568
934.18	41.349
934.36	42.490
934.53	43.882
934.70	46.004
934.87	39.621
935.04	40.776
935.21	40.019
935.38	47.246
935.56	47.483
935.73	41.990
935.90	41.522
936.07	42.347
936.24	45.329
936.41	43.820
936.58	45.395
936.76	43.296
936.93	44.740
937.10	47.550
937.27	47.572
937.44	41.820
937.61	48.305
937.78	50.645
937.95	48.772
938.13	45.655
938.30	49.121
938.47	49.591
938.64	49.663
938.81	53.205
938.98	52.798
939.15	48.778
939.32	52.784
939.49	45.054
939.66	52.603
939.84	55.112
940.01	56.480
940.18	55.006
940.35	48.603
940.52	47.712
940.69	53.057
940.86	49.937
941.03	50.298
941.20	48.128
941.37	51.479
941.54	59.476
941.71	54.138
941.89	54.472
942.06	54.461
942.23	51.174
942.40	55.287
942.57	56.679
942.74	62.679
942.91	59.720
943.08	60.152
943.25	65.700
943.42	71.489
943.59	64.089
943.76	66.802
943.93	68.622
944.10	67.725
944.27	69.839
944.44	68.088
944.61	65.199
944.79	68.169
944.96	68.796
945.13	61.669
945.30	72.764
945.47	63.699
945.64	69.960
945.81	69.945
945.98	71.310
946.15	72.386
946.32	74.965
946.49	69.294
946.66	71.736
946.83	58.242
947.00	73.525
947.17	66.322
947.34	67.977
947.51	73.047
947.68	72.871
947.85	74.925
948.02	79.643
948.19	68.521
948.36	79.526
948.53	80.796
948.70	72.760
948.87	89.984
949.04	69.585
949.21	72.937
949.38	78.401
949.55	71.629
949.72	72.652
949.89	63.438
950.06	69.136
950.23	66.835
950.40	69.652
950.57	72.252
950.74	74.735
950.91	72.794
951.08	73.519
951.25	82.890
951.42	74.858
951.59	67.631
951.76	65.859
951.93	63.129
952.10	62.681
952.27	72.149
952.44	70.000
952.61	68.602
952.77	63.188
952.94	66.870
953.11	67.048
953.28	60.189
953.45	72.967
953.62	54.991
953.79	66.852
953.96	61.133
954.13	64.176
954.30	68.145
954.47	64.779
954.64	62.308
954.81	66.197
954.98	60.037
955.15	65.800
955.32	59.051
955.49	66.732
955.65	67.200
955.82	64.562
955.99	67.736
956.16	75.148
956.33	69.980
956.50	73.541
956.67	57.344
956.84	63.483
957.01	73.523
957.18	66.799
957.35	68.145
957.52	70.080
957.68	77.902
957.85	57.872
958.02	62.907
958.19	75.122
958.36	74.171
958.53	71.354
958.70	64.882
958.87	65.996
959.04	70.000
959.21	59.692
959.37	81.039
959.54	66.897
959.71	76.066
959.88	60.954
960.05	60.333
960.22	64.563
960.39	55.314
960.56	52.193
960.72	47.609
960.89	49.469
961.06	48.333
961.23	53.061
961.40	55.254
961.57	51.389
961.74	49.012
961.90	51.515
962.07	52.321
962.24	53.992
962.41	47.682
962.58	50.641
962.75	43.096
962.92	50.327
963.08	46.517
963.25	46.204
963.42	52.038
963.59	46.186
963.76	47.856
963.93	40.138
964.10	48.837
964.26	46.234
964.43	51.270
964.60	44.235
964.77	47.685
964.94	43.396
965.10	40.702
965.27	32.952
965.44	41.230
965.61	44.837
965.78	45.000
965.95	36.993
966.11	48.848
966.28	35.457
966.45	35.083
966.62	41.106
966.79	40.212
966.95	40.950
967.12	44.820
967.29	40.590
967.46	43.891
967.63	36.596
967.79	36.876
967.96	51.549
968.13	40.936
968.30	38.189
968.47	38.958
968.63	50.746
968.80	48.096
968.97	50.114
969.14	40.198
969.31	33.333
969.47	36.832
969.64	31.062
969.81	31.078
969.98	33.578
970.14	37.744
970.31	40.652
970.48	38.393
970.65	37.176
970.81	36.198
970.98	33.619
971.15	29.350
971.32	38.000
971.48	38.022
971.65	36.388
971.82	27.991
971.99	32.011
972.15	38.005
972.32	42.254
972.49	36.247
972.66	33.036
972.82	26.862
972.99	40.000
973.16	30.556
973.33	32.227
973.49	21.662
973.66	30.423
973.83	27.806
974.00	33.108
974.16	39.091
974.33	31.844
974.50	33.575
974.67	30.617
974.83	31.961
975.00	27.512
975.17	25.747
975.33	26.869
975.50	21.237
975.67	31.567
975.84	25.427
976.00	24.471
976.17	21.176
976.34	22.864
976.50	29.834
976.67	31.881
976.84	29.337
977.00	17.730
977.17	17.746
977.34	23.684
977.50	29.223
977.67	24.658
977.84	20.917
978.01	23.298
978.17	34.761
978.34	21.340
978.51	26.877
978.67	25.229
978.84	25.057
979.01	20.047
979.17	27.579
979.34	23.057
979.51	24.500
979.67	19.175
979.84	33.492
980.01	30.752
980.17	23.851
980.34	35.417
980.51	34.411
980.67	27.273
980.84	32.784
981.01	24.747
981.17	29.020
981.34	16.842
981.50	29.327
981.67	28.288
981.84	30.807
982.00	13.918
982.17	30.534
982.34	28.738
982.50	30.488
982.67	35.142
982.84	29.206
983.00	27.415
983.17	27.523
983.33	34.000
983.50	24.439
983.67	27.533
983.83	32.071
984.00	25.962
984.17	12.876
984.33	23.750
984.50	25.159
984.66	21.134
984.83	28.846
985.00	26.444
985.16	19.747
985.33	16.136
985.49	25.053
985.66	22.323
985.83	33.811
985.99	32.919
986.16	32.094
986.32	28.313
986.49	27.149
986.66	28.246
986.82	27.948
986.99	22.844
987.15	35.981
987.32	35.377
987.49	27.828
987.65	26.807
987.82	24.485
987.98	30.047
988.15	37.659
988.31	37.825
988.48	40.758
988.65	39.418
988.81	36.018
988.98	17.751
989.14	25.829
989.31	36.759
989.47	33.413
989.64	29.955
989.80	40.845
989.97	38.312
990.14	38.723
990.30	39.183
990.47	31.796
990.63	26.218
990.80	44.742
990.96	26.728
991.13	27.455
991.29	36.580
991.46	38.955
991.62	36.744
991.79	39.666
991.95	41.309
992.12	26.531
992.29	38.008
992.45	38.303
992.62	24.215
992.78	38.155
992.95	50.478
993.11	38.926
993.28	42.298
993.44	38.731
993.61	34.232
993.77	36.911
993.94	33.638
994.10	40.295
994.27	39.609
994.43	36.498
994.60	45.500
994.76	47.806
994.93	49.658
995.09	46.631
995.26	60.680
995.42	47.202
995.59	33.245
995.75	56.250
995.92	45.647
996.08	40.000
996.25	41.728
996.41	43.137
996.58	34.247
996.74	45.648
996.91	44.909
997.07	40.000
997.23	45.343
997.40	48.565
997.56	39.019
997.73	39.000
997.89	34.676
998.06	35.903
998.22	33.415
998.39	36.345
998.55	40.647
998.72	39.720
998.88	49.000
999.05	40.749
999.21	39.857
999.37	51.596
999.54	46.970
999.70	43.764
999.87	43.216
1000.03	53.881
1000.20	42.548
1000.36	37.650
1000.52	45.397
1000.69	50.505
1000.85	33.693
1001.02	32.420
1001.18	39.579
1001.35	51.168
1001.51	38.530
1001.67	37.862
1001.84	48.945
1002.00	39.916
1002.17	34.404
1002.33	45.199
1002.50	42.212
1002.66	44.076
1002.82	49.749
1002.99	43.467
1003.15	51.629
1003.32	61.654
1003.48	40.670
1003.64	34.351
1003.81	58.708
1003.97	38.128
1004.14	63.270
1004.30	49.877
1004.46	65.013
1004.63	51.948
1004.79	60.000
1004.95	58.355
1005.12	58.516
1005.28	46.335
1005.45	59.447
1005.61	52.812
1005.77	51.232
1005.94	56.054
1006.10	62.720
1006.26	46.283
1006.43	55.687
1006.59	47.191
1006.76	52.770
1006.92	55.529
1007.08	57.416
1007.25	48.565
1007.41	44.844
1007.57	52.206
1007.74	57.935
1007.90	53.866
1008.06	51.042
1008.23	62.564
1008.39	58.996
1008.55	53.687
1008.72	55.112
1008.88	60.889
1009.04	64.363
1009.21	57.757
1009.37	59.737
1009.53	54.676
1009.70	56.989
1009.86	75.132
1010.02	52.620
1010.19	65.429
1010.35	67.552
1010.51	68.735
1010.68	57.828
1010.84	69.291
1011.00	73.333
1011.17	68.975
1011.33	63.570
1011.49	55.367
1011.66	65.897
1011.82	56.777
1011.98	66.163
1012.14	65.205
1012.31	74.336
1012.47	70.588
1012.63	69.253
1012.80	69.577
1012.96	62.834
1013.12	70.833
1013.29	59.280
1013.45	59.530
1013.61	58.398
1013.77	66.150
1013.94	56.658
1014.10	47.879
1014.26	63.861
1014.43	52.747
1014.59	68.207
1014.75	62.694
1014.91	60.641
1015.08	48.184
1015.24	48.837
1015.40	56.750
1015.56	58.947
1015.73	49.383
1015.89	73.118
1016.05	55.687
1016.21	57.841
1016.38	71.582
1016.54	71.345
1016.70	75.294
1016.86	62.644
1017.03	54.496
1017.19	65.586
1017.35	50.000
1017.51	59.452
1017.68	62.597
1017.84	51.294
1018.00	61.880
1018.16	69.444
1018.33	72.753
1018.49	64.762
1018.65	76.567
1018.81	70.948
1018.97	58.074
1019.14	67.302
1019.30	79.037
1019.46	73.196
1019.62	62.109
1019.79	85.893
1019.95	64.781
1020.11	72.586
1020.27	82.295
1020.43	80.000
1020.60	88.258
1020.76	93.633
1020.92	86.835
1021.08	73.355
1021.24	88.509
1021.41	80.000
1021.57	79.598
1021.73	75.738
1021.89	76.645
1022.05	88.153
1022.21	78.611
1022.38	79.143
1022.54	83.381
1022.70	82.667
1022.86	84.438
1023.02	94.203
1023.19	96.711
1023.35	90.032
1023.51	93.590
1023.67	78.779
1023.83	83.969
1023.99	81.690
1024.16	83.333
1024.32	94.498
1024.48	86.879
1024.64	88.742
1024.80	75.532
1024.96	74.383
1025.12	73.041
1025.29	82.332
1025.45	86.071
1025.61	70.645
1025.77	71.841
1025.93	77.329
1026.09	85.714
1026.26	85.811
1026.42	90.164
1026.58	84.429
1026.74	92.941
1026.90	85.801
1027.06	71.947
1027.22	83.893
1027.38	98.582
1027.55	116.019
1027.71	79.070
1027.87	88.814
1028.03	93.227
1028.19	81.695
1028.35	76.753
1028.51	81.494
1028.67	81.749
1028.83	74.026
1029.00	60.000
1029.16	93.125
1029.32	71.805
1029.48	71.094
1029.64	74.098
1029.80	66.260
1029.96	89.418
1030.12	67.033
1030.28	63.509
1030.44	94.444
1030.61	73.840
1030.77	60.246
1030.93	65.873
1031.09	59.608
1031.25	63.452
1031.41	78.715
1031.57	71.730
1031.73	53.333
1031.89	71.025
1032.05	61.049
1032.21	50.612
1032.37	50.000
1032.53	81.648
1032.69	64.807
1032.86	66.827
1033.02	44.850
1033.18	65.769
1033.34	55.556
1033.50	53.886
1033.66	72.075
1033.82	54.212
1033.98	40.948
1034.14	69.585
1034.30	60.305
1034.46	51.128
1034.62	50.588
1034.78	43.382
1034.94	27.798
1035.10	38.350
1035.26	44.674
1035.42	56.954
1035.58	50.181
1035.74	73.029
1035.90	64.390
1036.06	41.573
1036.22	43.130
1036.38	68.282
1036.54	43.443
1036.70	56.667
1036.86	50.515
1037.02	48.718
1037.18	54.762
1037.34	57.143
1037.50	69.903
1037.66	38.947
1037.82	60.417
1037.98	57.706
1038.14	56.906
1038.30	36.923
1038.46	50.000
1038.62	33.803
1038.78	54.808
1038.94	67.488
1039.10	42.105
1039.26	82.759
1039.42	40.826
1039.58	65.089
1039.74	38.494
1039.90	48.500
1040.06	66.829
>>>>>End Processed Spectral Data<<<<<
