SpectraSuite Data File
++++++++++++++++++++++++++++++++++++
Date: Wed Jan 25 18:50:21 EET 2017
User: TheoProf
Dark Spectrum Present: Yes
Reference Spectrum Present: Yes
Number of Sampled Component Spectra: 1
Spectrometers: USB4C02475
Integration Time (usec): 64136 (USB4C02475)
Spectra Averaged: 1 (USB4C02475)
Boxcar Smoothing: 0 (USB4C02475)
Correct for Electrical Dark: No (USB4C02475)
Strobe/Lamp Enabled: No (USB4C02475)
Correct for Detector Non-linearity: No (USB4C02475)
Correct for Stray Light: No (USB4C02475)
Number of Pixels in Processed Spectrum: 3648
>>>>>Begin Processed Spectral Data<<<<<
344.91	441.667
345.13	441.667
345.35	441.667
345.57	-0.000
345.79	1125.000
346.00	236.842
346.22	25.000
346.44	-24.138
346.66	0.000
346.87	224.138
347.09	120.000
347.31	23.913
347.53	33.333
347.74	73.684
347.96	125.000
348.18	-225.000
348.40	178.947
348.61	184.615
348.83	72.727
349.05	-21.311
349.27	-179.167
349.48	200.000
349.70	158.824
349.92	3.226
350.14	86.885
350.35	96.296
350.57	-8.333
350.79	32.353
351.01	3.077
351.22	-10.000
351.44	78.205
351.66	-320.000
351.87	27.778
352.09	387.500
352.31	2.857
352.53	38.333
352.74	75.862
352.96	66.000
353.18	104.878
353.40	600.000
353.61	52.381
353.83	363.636
354.05	440.000
354.26	37.879
354.48	4.762
354.70	-57.895
354.92	-76.923
355.13	113.793
355.35	56.604
355.57	78.431
355.78	35.484
356.00	83.333
356.22	57.534
356.44	25.000
356.65	51.923
356.87	26.923
357.09	36.000
357.30	14.286
357.52	600.000
357.74	-5.455
357.95	-20.833
358.17	-6.818
358.39	34.884
358.60	75.000
358.82	-107.692
359.04	540.000
359.26	25.490
359.47	13.889
359.69	15.842
359.91	30.000
360.12	-470.000
360.34	121.622
360.56	158.333
360.77	-48.718
360.99	58.621
361.21	51.786
361.42	25.532
361.64	50.000
361.86	-66.667
362.07	39.024
362.29	-2.273
362.51	44.048
362.72	307.692
362.94	63.077
363.16	-13.636
363.37	20.312
363.59	72.000
363.81	125.000
364.02	102.041
364.24	-369.231
364.46	69.231
364.67	-125.000
364.89	-15.152
365.11	20.370
365.32	42.857
365.54	-294.737
365.76	29.885
365.97	-69.697
366.19	427.273
366.41	-107.143
366.62	68.571
366.84	157.143
367.05	12.727
367.27	63.636
367.49	25.806
367.70	131.429
367.92	-76.316
368.14	-107.143
368.35	-2.941
368.57	35.443
368.79	60.377
369.00	65.306
369.22	-70.000
369.43	51.562
369.65	-7.500
369.87	71.429
370.08	22.222
370.30	-640.000
370.51	-260.000
370.73	34.848
370.95	-7.692
371.16	1.852
371.38	-50.000
371.60	966.667
371.81	-23.684
372.03	50.725
372.24	-300.000
372.46	-17.241
372.68	-54.167
372.89	36.842
373.11	6.780
373.32	-11.111
373.54	-21.053
373.76	83.673
373.97	100.000
374.19	-28.205
374.40	-32.759
374.62	-81.250
374.84	80.000
375.05	9.259
375.27	-32.000
375.48	-94.118
375.70	-24.138
375.92	21.154
376.13	-106.667
376.35	-47.619
376.56	-14.286
376.78	68.182
376.99	-33.846
377.21	-79.070
377.43	19.231
377.64	-22.078
377.86	0.000
378.07	1080.000
378.29	-2.273
378.51	49.383
378.72	19.178
378.94	37.143
379.15	77.193
379.37	-38.000
379.58	-6.250
379.80	-4.167
380.01	-10.526
380.23	15.556
380.45	23.684
380.66	24.638
380.88	-40.909
381.09	-65.625
381.31	-28.125
381.52	-139.130
381.74	63.158
381.95	-150.000
382.17	-34.091
382.39	51.724
382.60	111.905
382.82	100.000
383.03	-212.500
383.25	1.250
383.46	-189.474
383.68	20.455
383.89	56.190
384.11	69.492
384.32	25.581
384.54	13.131
384.76	50.000
384.97	5.882
385.19	39.583
385.40	0.000
385.62	-46.552
385.83	68.254
386.05	38.333
386.26	-11.111
386.48	49.180
386.69	3.704
386.91	0.000
387.12	47.692
387.34	-50.000
387.55	-172.222
387.77	-8.219
387.98	34.314
388.20	-13.158
388.41	-22.857
388.63	104.000
388.84	25.000
389.06	6.061
389.27	16.832
389.49	23.077
389.70	39.216
389.92	-7.143
390.13	-5.102
390.35	51.471
390.56	45.098
390.78	3.409
390.99	38.028
391.21	19.118
391.42	24.691
391.64	-27.500
391.85	69.444
392.07	-37.500
392.28	65.574
392.50	-27.778
392.71	-32.258
392.93	41.379
393.14	24.528
393.36	13.208
393.57	32.258
393.79	-3400.000
394.00	13.725
394.22	-9.722
394.43	29.032
394.65	-58.065
394.86	25.962
395.08	40.506
395.29	61.176
395.50	-9.756
395.72	51.613
395.93	41.353
396.15	30.645
396.36	-18.391
396.58	3.478
396.79	45.946
397.01	-10.938
397.22	-35.821
397.44	10.924
397.65	29.167
397.87	-21.622
398.08	16.239
398.29	0.000
398.51	22.667
398.72	27.273
398.94	5.263
399.15	-7.921
399.37	22.388
399.58	48.936
399.80	12.745
400.01	8.333
400.22	-18.519
400.44	-1.111
400.65	5.882
400.87	12.931
401.08	-18.939
401.30	-29.167
401.51	-24.194
401.72	12.903
401.94	21.552
402.15	-2.586
402.37	14.151
402.58	16.667
402.80	0.000
403.01	1.235
403.22	-12.632
403.44	24.242
403.65	43.382
403.87	3.571
404.08	24.359
404.30	-14.615
404.51	22.034
404.72	35.461
404.94	29.008
405.15	29.054
405.37	48.031
405.58	-5.714
405.79	-24.211
406.01	10.458
406.22	3.200
406.44	14.184
406.65	-1.250
406.86	-9.272
407.08	5.556
407.29	-5.263
407.51	21.795
407.72	27.083
407.93	19.079
408.15	7.975
408.36	-10.949
408.58	19.459
408.79	5.634
409.00	18.710
409.22	12.022
409.43	7.092
409.64	-19.531
409.86	11.728
410.07	1.899
410.29	14.486
410.50	-10.169
410.71	1.961
410.93	19.251
411.14	3.067
411.35	10.458
411.57	-6.024
411.78	11.243
412.00	-14.685
412.21	-8.904
412.42	-10.180
412.64	-19.697
412.85	25.146
413.06	13.761
413.28	-11.333
413.49	7.729
413.70	10.169
413.92	7.586
414.13	-2.679
414.34	22.513
414.56	3.681
414.77	8.824
414.98	-5.759
415.20	-6.936
415.41	-8.889
415.63	-3.070
415.84	0.000
416.05	23.043
416.27	-5.455
416.48	14.754
416.69	5.856
416.91	10.145
417.12	-3.646
417.33	20.253
417.55	-8.140
417.76	-3.448
417.97	-0.488
418.19	25.000
418.40	1.648
418.61	6.723
418.83	3.167
419.04	-1.802
419.25	16.393
419.46	9.607
419.68	19.048
419.89	1.604
420.10	13.808
420.32	13.147
420.53	12.851
420.74	17.308
420.96	9.562
421.17	9.881
421.38	21.073
421.60	3.333
421.81	-5.833
422.02	17.241
422.23	6.224
422.45	13.704
422.66	5.833
422.87	-3.435
423.09	-5.286
423.30	6.944
423.51	25.092
423.73	10.390
423.94	12.111
424.15	6.564
424.36	15.313
424.58	9.689
424.79	5.941
425.00	-3.873
425.22	21.333
425.43	14.130
425.64	9.740
425.85	0.405
426.07	10.726
426.28	13.014
426.49	10.332
426.71	5.848
426.92	-1.183
427.13	1.980
427.34	14.242
427.56	31.548
427.77	23.437
427.98	0.806
428.19	3.861
428.41	22.526
428.62	9.932
428.83	32.591
429.04	24.224
429.26	25.074
429.47	45.846
429.68	31.692
429.89	27.976
430.11	34.115
430.32	34.828
430.53	42.619
430.74	22.671
430.96	45.812
431.17	46.439
431.38	30.968
431.59	30.275
431.81	39.785
432.02	28.652
432.23	24.773
432.44	46.154
432.66	39.944
432.87	29.787
433.08	37.037
433.29	45.431
433.51	43.137
433.72	47.541
433.93	41.259
434.14	51.174
434.35	37.046
434.57	47.379
434.78	39.277
434.99	45.043
435.20	58.447
435.42	59.836
435.63	71.956
435.84	63.699
436.05	67.196
436.26	62.162
436.48	65.981
436.69	59.574
436.90	47.025
437.11	46.369
437.32	56.785
437.54	50.728
437.75	59.245
437.96	44.511
438.17	55.370
438.38	66.064
438.60	56.903
438.81	56.627
439.02	58.696
439.23	56.481
439.44	62.891
439.66	62.143
439.87	59.302
440.08	67.769
440.29	67.829
440.50	72.816
440.72	67.042
440.93	68.271
441.14	74.379
441.35	83.333
441.56	76.292
441.77	79.967
441.99	73.134
442.20	84.409
442.41	74.955
442.62	77.069
442.83	78.378
443.04	82.815
443.26	76.555
443.47	74.135
443.68	80.303
443.89	76.611
444.10	81.541
444.31	78.947
444.53	68.948
444.74	75.475
444.95	86.618
445.16	77.181
445.37	74.595
445.58	87.903
445.80	78.029
446.01	75.606
446.22	89.060
446.43	77.454
446.64	72.129
446.85	74.198
447.06	71.835
447.28	73.392
447.49	73.113
447.70	83.639
447.91	76.772
448.12	74.933
448.33	73.931
448.54	77.898
448.76	81.081
448.97	73.061
449.18	73.506
449.39	78.867
449.60	74.860
449.81	80.655
450.02	78.984
450.23	79.948
450.45	72.368
450.66	71.824
450.87	76.252
451.08	75.866
451.29	82.615
451.50	76.943
451.71	77.386
451.92	79.167
452.13	78.607
452.35	73.907
452.56	75.531
452.77	85.548
452.98	96.986
453.19	89.400
453.40	90.551
453.61	82.953
453.82	98.316
454.03	90.552
454.25	87.613
454.46	93.591
454.67	80.861
454.88	74.536
455.09	78.876
455.30	82.989
455.51	76.739
455.72	82.118
455.93	87.662
456.14	83.120
456.35	78.947
456.56	84.901
456.78	85.867
456.99	84.080
457.20	84.718
457.41	82.430
457.62	73.637
457.83	80.110
458.04	74.530
458.25	83.834
458.46	78.348
458.67	78.189
458.88	82.535
459.09	80.142
459.30	78.444
459.51	82.927
459.73	87.128
459.94	75.439
460.15	86.503
460.36	80.695
460.57	83.528
460.78	82.696
460.99	78.603
461.20	78.053
461.41	79.078
461.62	83.409
461.83	83.073
462.04	77.892
462.25	80.035
462.46	82.364
462.67	84.072
462.88	83.795
463.09	88.790
463.30	87.227
463.51	88.266
463.72	82.879
463.93	80.629
464.15	77.951
464.36	77.953
464.57	80.803
464.78	76.138
464.99	75.905
465.20	78.508
465.41	88.377
465.62	81.720
465.83	92.418
466.04	90.472
466.25	94.191
466.46	90.526
466.67	93.417
466.88	83.723
467.09	80.740
467.30	86.921
467.51	79.604
467.72	80.181
467.93	85.935
468.14	81.319
468.35	82.903
468.56	81.688
468.77	74.789
468.98	77.785
469.19	77.981
469.40	80.986
469.61	77.287
469.82	80.344
470.03	72.699
470.24	72.932
470.45	75.229
470.66	73.838
470.87	75.761
471.08	79.711
471.29	81.517
471.50	72.737
471.71	79.489
471.92	73.130
472.13	71.769
472.34	77.981
472.55	72.425
472.76	75.071
472.97	71.785
473.18	71.622
473.39	68.667
473.60	65.964
473.81	64.052
474.01	64.741
474.22	62.470
474.43	61.766
474.64	56.987
474.85	51.065
475.06	50.772
475.27	47.467
475.48	42.500
475.69	37.286
475.90	39.515
476.11	38.309
476.32	32.654
476.53	28.944
476.74	27.661
476.95	22.872
477.16	20.974
477.37	17.044
477.58	16.224
477.79	10.844
478.00	10.425
478.21	9.617
478.41	10.697
478.62	7.281
478.83	5.126
479.04	5.921
479.25	5.771
479.46	4.216
479.67	3.494
479.88	5.391
480.09	2.087
480.30	2.093
480.51	1.622
480.72	1.151
480.93	2.681
481.14	1.389
481.34	1.967
481.55	0.609
481.76	2.187
481.97	1.713
482.18	1.092
482.39	3.774
482.60	1.993
482.81	0.236
483.02	1.904
483.23	2.566
483.44	2.617
483.65	1.101
483.85	1.871
484.06	2.198
484.27	2.479
484.48	3.439
484.69	2.935
484.90	4.336
485.11	2.558
485.32	2.691
485.53	3.146
485.73	3.751
485.94	3.917
486.15	3.423
486.36	3.500
486.57	3.116
486.78	4.618
486.99	3.543
487.20	2.706
487.41	2.456
487.61	3.622
487.82	4.756
488.03	4.768
488.24	3.779
488.45	4.001
488.66	2.537
488.87	3.081
489.08	3.129
489.28	3.731
489.49	2.945
489.70	4.714
489.91	2.522
490.12	3.645
490.33	3.230
490.54	3.321
490.74	3.758
490.95	3.593
491.16	2.846
491.37	1.982
491.58	3.497
491.79	3.199
492.00	2.683
492.20	3.457
492.41	2.676
492.62	2.330
492.83	3.757
493.04	3.007
493.25	1.980
493.45	2.169
493.66	2.105
493.87	2.106
494.08	1.117
494.29	1.238
494.50	1.414
494.70	2.128
494.91	2.105
495.12	1.934
495.33	2.005
495.54	0.898
495.75	1.929
495.95	1.674
496.16	1.831
496.37	1.187
496.58	0.614
496.79	1.546
496.99	1.979
497.20	2.127
497.41	2.061
497.62	1.756
497.83	2.121
498.04	0.857
498.24	2.094
498.45	2.095
498.66	1.490
498.87	1.249
499.08	1.879
499.28	1.898
499.49	1.341
499.70	1.749
499.91	1.135
500.12	0.620
500.32	1.096
500.53	0.988
500.74	1.395
500.95	1.312
501.15	1.139
501.36	1.762
501.57	1.619
501.78	0.520
501.99	1.363
502.19	1.443
502.40	1.346
502.61	0.968
502.82	0.511
503.02	1.022
503.23	0.380
503.44	1.252
503.65	2.080
503.86	1.562
504.06	1.301
504.27	1.492
504.48	1.246
504.69	0.476
504.89	1.361
505.10	1.770
505.31	1.218
505.52	1.300
505.72	1.755
505.93	2.364
506.14	0.722
506.35	1.072
506.55	0.624
506.76	0.896
506.97	1.302
507.18	0.651
507.38	1.714
507.59	1.515
507.80	0.345
508.01	1.662
508.21	0.667
508.42	1.249
508.63	1.176
508.84	1.326
509.04	1.670
509.25	0.835
509.46	1.230
509.67	1.273
509.87	1.100
510.08	1.634
510.29	0.897
510.49	0.659
510.70	1.128
510.91	1.758
511.12	1.032
511.32	1.187
511.53	0.978
511.74	1.728
511.94	1.240
512.15	0.455
512.36	1.818
512.57	0.939
512.77	0.498
512.98	0.851
513.19	1.199
513.39	1.052
513.60	1.421
513.81	-0.121
514.01	0.809
514.22	1.811
514.43	1.391
514.64	2.208
514.84	0.745
515.05	1.113
515.26	0.949
515.46	0.827
515.67	1.668
515.88	1.440
516.08	1.120
516.29	1.618
516.50	1.870
516.70	1.755
516.91	1.879
517.12	1.511
517.32	2.053
517.53	1.464
517.74	1.702
517.95	1.615
518.15	1.876
518.36	1.791
518.57	2.206
518.77	2.069
518.98	3.316
519.19	3.125
519.39	3.462
519.60	4.395
519.80	4.978
520.01	5.199
520.22	6.215
520.42	6.774
520.63	7.334
520.84	9.451
521.04	8.807
521.25	9.777
521.46	10.978
521.66	12.487
521.87	13.135
522.08	15.219
522.28	15.876
522.49	16.422
522.70	18.944
522.90	20.293
523.11	22.065
523.31	25.598
523.52	26.445
523.73	28.149
523.93	30.356
524.14	29.030
524.35	32.186
524.55	33.411
524.76	33.568
524.97	36.157
525.17	36.045
525.38	37.993
525.58	38.765
525.79	38.481
526.00	39.018
526.20	41.679
526.41	43.055
526.61	42.336
526.82	43.224
527.03	44.635
527.23	44.114
527.44	45.099
527.64	44.179
527.85	44.556
528.06	45.113
528.26	45.696
528.47	45.752
528.68	45.893
528.88	45.183
529.09	45.826
529.29	47.242
529.50	47.785
529.70	47.260
529.91	46.726
530.12	47.483
530.32	48.336
530.53	49.223
530.73	51.253
530.94	52.648
531.15	53.900
531.35	57.774
531.56	56.369
531.76	57.271
531.97	59.349
532.17	58.035
532.38	59.007
532.59	62.787
532.79	63.153
533.00	66.068
533.20	68.286
533.41	70.352
533.61	71.239
533.82	73.273
534.03	76.578
534.23	80.032
534.44	82.646
534.64	85.651
534.85	89.103
535.05	89.291
535.26	89.876
535.46	89.319
535.67	88.941
535.88	90.427
536.08	89.527
536.29	86.686
536.49	86.763
536.70	86.729
536.90	84.355
537.11	86.161
537.31	91.587
537.52	91.108
537.72	93.826
537.93	90.923
538.13	93.827
538.34	98.240
538.55	97.517
538.75	96.903
538.96	92.993
539.16	89.592
539.37	91.525
539.57	92.054
539.78	92.502
539.98	92.604
540.19	95.586
540.39	94.995
540.60	98.989
540.80	99.810
541.01	97.854
541.21	97.998
541.42	97.647
541.62	92.915
541.83	94.469
542.03	91.362
542.24	90.821
542.44	87.595
542.65	87.167
542.85	85.423
543.06	85.116
543.26	86.820
543.47	87.104
543.67	88.488
543.88	88.842
544.08	88.954
544.29	86.035
544.49	86.535
544.70	87.258
544.90	91.127
545.11	92.922
545.31	95.672
545.52	94.982
545.72	92.002
545.93	88.729
546.13	88.264
546.34	86.482
546.54	86.772
546.75	90.637
546.95	94.138
547.15	97.696
547.36	96.488
547.56	95.417
547.77	96.860
547.97	96.096
548.18	95.558
548.38	92.898
548.59	92.760
548.79	92.507
549.00	95.577
549.20	95.305
549.41	95.865
549.61	93.930
549.81	91.538
550.02	88.666
550.22	86.516
550.43	85.640
550.63	88.205
550.84	86.243
551.04	87.754
551.25	86.297
551.45	88.295
551.65	90.801
551.86	89.917
552.06	90.178
552.27	91.949
552.47	92.549
552.68	93.027
552.88	96.687
553.08	98.135
553.29	96.706
553.49	97.825
553.70	99.233
553.90	98.310
554.11	99.410
554.31	99.025
554.51	98.745
554.72	98.279
554.92	99.107
555.13	98.578
555.33	97.403
555.53	98.924
555.74	96.931
555.94	94.123
556.15	93.603
556.35	90.970
556.56	95.066
556.76	93.767
556.96	95.997
557.17	96.310
557.37	95.689
557.58	96.204
557.78	97.495
557.98	99.418
558.19	100.168
558.39	98.667
558.59	96.381
558.80	94.174
559.00	93.723
559.21	94.070
559.41	93.185
559.61	90.946
559.82	91.452
560.02	89.641
560.23	89.657
560.43	89.626
560.63	88.277
560.84	91.848
561.04	95.321
561.24	96.560
561.45	98.793
561.65	99.660
561.85	98.811
562.06	97.370
562.26	97.026
562.47	93.181
562.67	92.075
562.87	93.755
563.08	89.712
563.28	91.013
563.48	90.709
563.69	89.413
563.89	92.371
564.09	93.476
564.30	93.792
564.50	93.915
564.70	91.257
564.91	89.694
565.11	88.796
565.31	88.278
565.52	85.720
565.72	85.332
565.92	85.241
566.13	84.804
566.33	87.793
566.53	88.567
566.74	89.595
566.94	91.126
567.14	93.039
567.35	93.676
567.55	92.124
567.75	92.173
567.96	91.015
568.16	87.816
568.36	87.583
568.57	88.380
568.77	89.809
568.97	89.356
569.18	89.974
569.38	90.192
569.58	89.380
569.79	90.003
569.99	89.546
570.19	88.714
570.39	90.049
570.60	89.082
570.80	86.788
571.00	87.343
571.21	88.177
571.41	88.478
571.61	90.105
571.82	86.830
572.02	87.824
572.22	85.795
572.42	86.199
572.63	87.127
572.83	88.799
573.03	86.541
573.24	85.484
573.44	85.986
573.64	85.505
573.84	87.258
574.05	87.635
574.25	88.037
574.45	88.891
574.66	87.499
574.86	86.854
575.06	86.118
575.26	84.017
575.47	80.474
575.67	77.327
575.87	75.308
576.07	72.597
576.28	71.031
576.48	67.625
576.68	65.914
576.88	64.134
577.09	64.320
577.29	62.146
577.49	58.825
577.69	54.680
577.90	51.872
578.10	49.415
578.30	45.115
578.50	41.382
578.71	38.584
578.91	36.506
579.11	33.556
579.31	32.161
579.52	30.746
579.72	28.113
579.92	25.022
580.12	21.895
580.33	19.328
580.53	17.196
580.73	15.503
580.93	13.777
581.13	12.587
581.34	11.246
581.54	10.251
581.74	9.971
581.94	9.011
582.15	8.016
582.35	7.119
582.55	6.314
582.75	5.352
582.95	4.948
583.16	4.124
583.36	4.384
583.56	3.800
583.76	3.287
583.96	2.954
584.17	2.821
584.37	2.440
584.57	2.614
584.77	2.095
584.97	2.177
585.18	2.030
585.38	2.057
585.58	1.520
585.78	1.577
585.98	1.354
586.19	1.495
586.39	1.462
586.59	1.793
586.79	1.779
586.99	2.147
587.20	1.767
587.40	2.117
587.60	1.818
587.80	1.828
588.00	1.463
588.20	1.602
588.41	1.362
588.61	1.702
588.81	1.524
589.01	1.302
589.21	1.308
589.41	1.453
589.62	1.163
589.82	1.144
590.02	1.107
590.22	0.997
590.42	1.338
590.62	1.080
590.83	0.898
591.03	1.082
591.23	1.432
591.43	0.862
591.63	1.040
591.83	1.298
592.03	0.971
592.24	1.291
592.44	1.230
592.64	1.093
592.84	1.079
593.04	1.256
593.24	1.152
593.44	1.036
593.65	1.570
593.85	1.241
594.05	1.228
594.25	1.103
594.45	1.007
594.65	0.568
594.85	0.902
595.06	0.833
595.26	0.693
595.46	0.839
595.66	0.643
595.86	0.841
596.06	1.035
596.26	1.037
596.46	0.672
596.66	0.635
596.87	0.700
597.07	0.647
597.27	0.724
597.47	0.568
597.67	0.812
597.87	0.781
598.07	0.412
598.27	0.500
598.47	0.986
598.67	0.823
598.88	1.209
599.08	0.853
599.28	0.992
599.48	1.000
599.68	0.840
599.88	0.891
600.08	0.771
600.28	1.131
600.48	0.819
600.68	0.430
600.88	0.613
601.09	0.863
601.29	0.747
601.49	0.838
601.69	0.852
601.89	1.060
602.09	0.725
602.29	0.709
602.49	0.824
602.69	0.976
602.89	0.837
603.09	0.697
603.29	0.755
603.49	0.488
603.69	0.651
603.90	0.862
604.10	0.826
604.30	0.709
604.50	0.751
604.70	0.878
604.90	0.843
605.10	1.025
605.30	0.916
605.50	0.999
605.70	0.912
605.90	1.080
606.10	0.755
606.30	0.888
606.50	0.888
606.70	0.925
606.90	0.966
607.10	0.912
607.30	0.905
607.50	1.111
607.70	1.212
607.90	1.045
608.10	1.429
608.30	1.312
608.50	1.213
608.70	1.236
608.90	1.067
609.11	1.058
609.31	1.361
609.51	1.154
609.71	1.306
609.91	1.356
610.11	1.687
610.31	1.972
610.51	2.540
610.71	3.439
610.91	4.195
611.11	4.979
611.31	5.319
611.51	5.611
611.71	5.363
611.91	5.348
612.11	5.774
612.31	5.430
612.51	5.753
612.71	5.843
612.91	6.543
613.11	6.648
613.31	6.792
613.51	7.485
613.71	8.780
613.91	9.570
614.11	10.382
614.31	10.815
614.50	11.517
614.70	12.859
614.90	13.515
615.10	13.770
615.30	14.811
615.50	15.510
615.70	16.112
615.90	17.568
616.10	18.349
616.30	19.128
616.50	19.991
616.70	21.970
616.90	22.806
617.10	24.287
617.30	25.175
617.50	25.729
617.70	27.124
617.90	27.679
618.10	28.135
618.30	29.472
618.50	29.844
618.70	31.187
618.90	31.809
619.10	32.711
619.30	34.210
619.49	35.465
619.69	35.896
619.89	36.110
620.09	35.882
620.29	35.690
620.49	36.456
620.69	38.074
620.89	38.312
621.09	39.031
621.29	39.265
621.49	38.605
621.69	39.755
621.89	40.336
622.09	40.395
622.29	41.349
622.48	41.734
622.68	41.721
622.88	41.736
623.08	41.442
623.28	39.877
623.48	39.018
623.68	39.290
623.88	39.787
624.08	41.845
624.28	43.236
624.48	45.307
624.67	46.196
624.87	47.963
625.07	49.670
625.27	50.886
625.47	50.743
625.67	51.447
625.87	54.033
626.07	55.850
626.27	57.650
626.47	58.012
626.66	58.227
626.86	59.703
627.06	61.723
627.26	63.749
627.46	67.755
627.66	72.179
627.86	74.470
628.06	74.588
628.25	74.985
628.45	74.796
628.65	77.846
628.85	79.168
629.05	79.545
629.25	80.808
629.45	82.996
629.65	84.062
629.84	84.816
630.04	84.207
630.24	84.525
630.44	85.496
630.64	84.657
630.84	84.820
631.04	86.386
631.23	86.939
631.43	84.805
631.63	86.192
631.83	86.977
632.03	87.649
632.23	88.483
632.42	88.149
632.62	89.068
632.82	91.168
633.02	93.773
633.22	93.221
633.42	92.134
633.62	90.344
633.81	89.816
634.01	88.112
634.21	87.272
634.41	85.490
634.61	83.792
634.80	84.139
635.00	84.035
635.20	84.526
635.40	83.993
635.60	85.434
635.80	86.657
635.99	88.011
636.19	89.329
636.39	91.880
636.59	92.612
636.79	92.186
636.98	91.957
637.18	89.899
637.38	88.054
637.58	89.097
637.78	90.515
637.97	88.457
638.17	87.953
638.37	87.140
638.57	86.231
638.77	85.649
638.96	84.821
639.16	85.663
639.36	85.330
639.56	85.197
639.76	85.218
639.95	87.404
640.15	86.116
640.35	84.674
640.55	82.402
640.75	82.290
640.94	82.657
641.14	82.541
641.34	83.187
641.54	83.768
641.73	82.634
641.93	82.690
642.13	82.225
642.33	82.828
642.53	81.768
642.72	83.373
642.92	86.598
643.12	88.586
643.32	91.807
643.51	93.069
643.71	93.580
643.91	94.071
644.11	94.549
644.30	93.741
644.50	92.497
644.70	89.987
644.90	88.009
645.09	87.962
645.29	87.616
645.49	85.787
645.69	85.052
645.88	84.813
646.08	84.320
646.28	83.007
646.48	81.870
646.67	81.467
646.87	81.688
647.07	83.110
647.26	84.412
647.46	84.849
647.66	84.280
647.86	85.891
648.05	87.207
648.25	88.056
648.45	89.532
648.65	90.187
648.84	90.813
649.04	91.629
649.24	92.400
649.43	90.524
649.63	91.042
649.83	88.528
650.03	88.338
650.22	88.136
650.42	90.268
650.62	91.123
650.81	88.403
651.01	88.519
651.21	86.162
651.40	87.037
651.60	85.067
651.80	84.563
652.00	85.252
652.19	84.796
652.39	85.738
652.59	85.437
652.78	85.661
652.98	85.231
653.18	85.069
653.37	83.200
653.57	85.285
653.77	85.107
653.96	87.717
654.16	90.029
654.36	92.351
654.55	91.721
654.75	90.633
654.95	89.367
655.14	86.380
655.34	86.268
655.54	85.986
655.73	85.746
655.93	87.521
656.13	87.625
656.32	88.578
656.52	90.376
656.72	89.722
656.91	90.165
657.11	90.258
657.31	90.032
657.50	90.365
657.70	91.467
657.90	92.199
658.09	93.167
658.29	93.694
658.49	91.840
658.68	91.918
658.88	90.739
659.07	90.468
659.27	92.136
659.47	91.090
659.66	89.709
659.86	88.612
660.06	90.668
660.25	89.628
660.45	90.462
660.64	91.169
660.84	89.431
661.04	90.157
661.23	89.371
661.43	90.712
661.63	92.324
661.82	90.852
662.02	90.930
662.21	91.218
662.41	90.483
662.61	88.774
662.80	88.362
663.00	87.958
663.19	87.766
663.39	85.821
663.59	86.949
663.78	85.457
663.98	86.379
664.17	87.418
664.37	87.168
664.57	84.684
664.76	84.228
664.96	82.528
665.15	79.543
665.35	78.514
665.55	76.825
665.74	75.396
665.94	74.265
666.13	72.834
666.33	71.879
666.53	71.702
666.72	71.470
666.92	71.665
667.11	73.364
667.31	72.648
667.50	72.547
667.70	70.667
667.90	69.682
668.09	67.200
668.29	64.345
668.48	61.678
668.68	59.064
668.87	56.728
669.07	53.259
669.26	50.952
669.46	49.324
669.66	46.837
669.85	44.397
670.05	41.473
670.24	38.635
670.44	36.980
670.63	35.465
670.83	33.166
671.02	30.929
671.22	29.281
671.42	27.794
671.61	26.187
671.81	24.613
672.00	22.738
672.20	20.590
672.39	19.330
672.59	17.181
672.78	15.680
672.98	14.290
673.17	13.380
673.37	11.886
673.56	11.261
673.76	9.912
673.95	8.786
674.15	7.907
674.34	7.288
674.54	6.450
674.73	5.490
674.93	4.690
675.13	4.344
675.32	3.808
675.52	3.415
675.71	3.330
675.91	3.216
676.10	2.718
676.30	2.481
676.49	2.259
676.69	2.063
676.88	1.629
677.08	1.422
677.27	1.664
677.47	1.212
677.66	1.072
677.86	1.277
678.05	0.843
678.24	0.933
678.44	0.705
678.63	0.838
678.83	0.732
679.02	0.803
679.22	0.747
679.41	0.701
679.61	0.762
679.80	0.671
680.00	0.653
680.19	0.474
680.39	0.405
680.58	0.417
680.78	0.633
680.97	0.617
681.17	0.558
681.36	0.520
681.56	0.449
681.75	0.527
681.94	0.272
682.14	0.379
682.33	0.232
682.53	0.175
682.72	0.321
682.92	0.440
683.11	0.178
683.31	0.247
683.50	0.525
683.69	0.391
683.89	0.396
684.08	0.335
684.28	0.206
684.47	0.281
684.67	0.304
684.86	0.472
685.06	0.430
685.25	0.284
685.44	0.347
685.64	0.218
685.83	0.275
686.03	0.187
686.22	0.321
686.42	0.024
686.61	0.205
686.80	0.342
687.00	0.282
687.19	0.378
687.39	0.187
687.58	0.362
687.77	0.541
687.97	0.184
688.16	0.251
688.36	0.105
688.55	0.108
688.74	0.324
688.94	0.108
689.13	0.208
689.33	0.181
689.52	0.265
689.71	0.077
689.91	0.128
690.10	0.144
690.30	0.028
690.49	0.211
690.68	0.037
690.88	0.089
691.07	0.162
691.27	0.166
691.46	0.021
691.65	0.139
691.85	-0.052
692.04	0.071
692.23	0.260
692.43	0.031
692.62	0.243
692.82	0.039
693.01	0.000
693.20	0.145
693.40	0.138
693.59	0.073
693.78	0.302
693.98	0.024
694.17	0.250
694.36	-0.060
694.56	-0.033
694.75	0.069
694.94	0.120
695.14	-0.016
695.33	0.261
695.53	0.130
695.72	0.055
695.91	0.103
696.11	0.064
696.30	0.145
696.49	0.047
696.69	0.174
696.88	0.122
697.07	0.169
697.27	0.107
697.46	-0.103
697.65	0.198
697.85	0.056
698.04	0.119
698.23	0.174
698.43	0.105
698.62	0.045
698.81	0.040
699.01	-0.086
699.20	0.017
699.39	-0.038
699.58	0.123
699.78	-0.107
699.97	-0.173
700.16	0.184
700.36	0.009
700.55	0.059
700.74	0.045
700.94	-0.008
701.13	0.017
701.32	0.149
701.52	-0.062
701.71	0.069
701.90	-0.180
702.09	-0.053
702.29	-0.045
702.48	0.327
702.67	0.150
702.87	-0.159
703.06	-0.054
703.25	0.181
703.44	0.101
703.64	-0.156
703.83	0.053
704.02	-0.058
704.22	-0.099
704.41	0.135
704.60	0.198
704.79	0.110
704.99	0.009
705.18	0.004
705.37	0.087
705.56	0.051
705.76	0.160
705.95	0.071
706.14	0.021
706.33	-0.037
706.53	0.101
706.72	0.117
706.91	-0.021
707.11	0.247
707.30	0.086
707.49	0.172
707.68	-0.057
707.88	0.174
708.07	-0.013
708.26	0.195
708.45	0.340
708.64	0.150
708.84	0.159
709.03	0.292
709.22	0.349
709.41	0.167
709.61	-0.051
709.80	0.084
709.99	0.094
710.18	0.207
710.38	-0.030
710.57	0.104
710.76	-0.158
710.95	0.095
711.14	0.146
711.34	0.110
711.53	0.129
711.72	-0.054
711.91	-0.062
712.11	0.234
712.30	0.025
712.49	0.047
712.68	0.164
712.87	0.048
713.07	0.175
713.26	-0.102
713.45	0.053
713.64	0.057
713.83	0.156
714.03	0.233
714.22	-0.077
714.41	-0.030
714.60	-0.142
714.79	-0.116
714.99	0.179
715.18	-0.087
715.37	0.097
715.56	0.111
715.75	0.000
715.94	0.278
716.14	-0.049
716.33	0.049
716.52	0.005
716.71	0.018
716.90	0.068
717.10	0.266
717.29	-0.085
717.48	-0.202
717.67	-0.058
717.86	0.248
718.05	-0.101
718.24	0.018
718.44	-0.053
718.63	-0.022
718.82	0.146
719.01	-0.235
719.20	0.084
719.39	-0.090
719.59	-0.167
719.78	0.150
719.97	-0.014
720.16	-0.014
720.35	-0.084
720.54	-0.014
720.73	-0.084
720.93	0.374
721.12	-0.074
721.31	0.135
721.50	0.126
721.69	-0.256
721.88	-0.010
722.07	0.010
722.27	0.173
722.46	-0.204
722.65	-0.261
722.84	-0.096
723.03	0.225
723.22	0.061
723.41	0.028
723.60	0.155
723.79	0.204
723.99	-0.018
724.18	-0.023
724.37	0.089
724.56	0.052
724.75	0.047
724.94	0.047
725.13	0.009
725.32	-0.181
725.51	0.043
725.71	-0.028
725.90	-0.124
726.09	0.099
726.28	0.000
726.47	-0.048
726.66	-0.048
726.85	0.049
727.04	0.074
727.23	0.040
727.42	0.025
727.61	-0.170
727.81	0.214
728.00	0.096
728.19	-0.106
728.38	-0.137
728.57	0.268
728.76	-0.058
728.95	0.195
729.14	0.005
729.33	0.040
729.52	0.176
729.71	-0.150
729.90	-0.146
730.09	-0.178
730.28	-0.090
730.48	-0.015
730.67	0.106
730.86	0.082
731.05	0.120
731.24	0.074
731.43	-0.238
731.62	0.022
731.81	0.239
732.00	0.049
732.19	0.187
732.38	-0.027
732.57	0.138
732.76	0.127
732.95	-0.021
733.14	0.115
733.33	-0.073
733.52	0.121
733.71	0.173
733.90	-0.110
734.09	0.015
734.28	-0.364
734.47	0.031
734.66	0.000
734.85	-0.172
735.04	-0.138
735.23	-0.016
735.42	-0.089
735.61	-0.101
735.81	-0.023
736.00	0.006
736.19	-0.475
736.38	-0.057
736.57	-0.051
736.76	0.011
736.95	-0.142
737.14	0.032
737.33	0.391
737.52	0.005
737.71	-0.093
737.90	0.139
738.09	-0.223
738.28	-0.065
738.47	-0.056
738.66	-0.091
738.85	-0.395
739.04	-0.070
739.22	-0.293
739.41	0.240
739.60	0.092
739.79	0.134
739.98	-0.034
740.17	-0.119
740.36	-0.067
740.55	0.155
740.74	0.082
740.93	0.257
741.12	-0.190
741.31	0.006
741.50	0.165
741.69	-0.006
741.88	0.116
742.07	0.040
742.26	-0.046
742.45	0.144
742.64	0.121
742.83	0.349
743.02	-0.159
743.21	0.000
743.40	0.221
743.59	0.162
743.78	0.145
743.97	-0.213
744.16	-0.040
744.34	0.268
744.53	0.114
744.72	0.307
744.91	0.112
745.10	-0.117
745.29	0.135
745.48	-0.135
745.67	-0.044
745.86	0.243
746.05	-0.114
746.24	0.209
746.43	-0.089
746.62	0.006
746.81	-0.226
747.00	-0.091
747.18	0.032
747.37	-0.250
747.56	0.160
747.75	-0.013
747.94	-0.106
748.13	0.133
748.32	-0.021
748.51	-0.166
748.70	-0.021
748.89	-0.056
749.08	-0.166
749.26	0.055
749.45	-0.199
749.64	0.035
749.83	-0.227
750.02	0.000
750.21	-0.130
750.40	0.241
750.59	-0.096
750.78	0.119
750.96	-0.166
751.15	0.157
751.34	0.202
751.53	-0.098
751.72	-0.166
751.91	-0.015
752.10	0.007
752.29	-0.022
752.47	-0.022
752.66	0.403
752.85	0.100
753.04	-0.119
753.23	0.088
753.42	0.064
753.61	-0.016
753.80	0.048
753.98	0.159
754.17	0.129
754.36	0.319
754.55	-0.248
754.74	-0.155
754.93	-0.026
755.12	0.017
755.30	0.206
755.49	0.055
755.68	0.099
755.87	-0.266
756.06	-0.143
756.25	-0.027
756.43	0.088
756.62	0.130
756.81	0.069
757.00	0.121
757.19	0.044
757.38	-0.242
757.56	0.223
757.75	0.329
757.94	-0.107
758.13	0.242
758.32	0.662
758.51	0.267
758.69	-0.089
758.88	0.159
759.07	0.424
759.26	-0.112
759.45	0.186
759.63	0.378
759.82	0.053
760.01	0.032
760.20	0.033
760.39	0.186
760.57	0.188
760.76	0.678
760.95	0.362
761.14	0.011
761.33	-0.354
761.51	0.359
761.70	-0.023
761.89	-0.069
762.08	0.324
762.27	0.490
762.45	0.398
762.64	-0.012
762.83	0.192
763.02	-0.025
763.21	-0.038
763.39	0.203
763.58	-0.102
763.77	-0.575
763.96	-0.090
764.14	0.140
764.33	-0.208
764.52	0.066
764.71	-0.147
764.89	0.013
765.08	0.078
765.27	-0.267
765.46	-0.213
765.65	0.172
765.83	-1.069
766.02	-0.675
766.21	-0.107
766.40	0.470
766.58	-0.123
766.77	-0.142
766.96	0.622
767.15	0.074
767.33	0.061
767.52	0.386
767.71	0.500
767.90	-0.282
768.08	0.459
768.27	-0.449
768.46	-0.274
768.64	-0.357
768.83	-0.165
769.02	0.813
769.21	-0.892
769.39	-0.477
769.58	-0.633
769.77	-0.240
769.96	0.290
770.14	0.648
770.33	-0.084
770.52	0.677
770.70	-0.154
770.89	-0.120
771.08	-0.341
771.27	1.204
771.45	-0.051
771.64	-0.641
771.83	-0.425
772.01	0.280
772.20	0.658
772.39	0.088
772.57	-0.489
772.76	-0.091
772.95	-0.073
773.14	0.445
773.32	0.018
773.51	-0.190
773.70	-0.094
773.88	-0.870
774.07	-0.019
774.26	0.209
774.44	0.420
774.63	0.230
774.82	-0.703
775.00	0.019
775.19	0.932
775.38	-0.471
775.56	-0.515
775.75	0.154
775.94	0.453
776.12	0.392
776.31	-0.321
776.50	0.140
776.68	0.681
776.87	0.402
777.06	-0.508
777.24	0.366
777.43	0.267
777.62	0.369
777.80	-0.798
777.99	0.041
778.18	0.855
778.36	0.230
778.55	0.290
778.74	-0.392
778.92	-0.996
779.11	0.663
779.29	-0.388
779.48	0.381
779.67	-0.841
779.85	-0.121
780.04	0.204
780.23	1.313
780.41	-0.467
780.60	-0.428
780.79	0.558
780.97	0.401
781.16	0.492
781.34	-0.974
781.53	-0.119
781.72	1.115
781.90	-0.234
782.09	0.019
782.28	-0.136
782.46	0.667
782.65	0.039
782.83	0.141
783.02	-0.482
783.21	-0.237
783.39	0.436
783.58	0.039
783.76	0.802
783.95	0.249
784.14	0.504
784.32	0.258
784.51	-0.690
784.69	-0.126
784.88	-0.145
785.06	-0.506
785.25	0.285
785.44	-0.301
785.62	0.105
785.81	0.633
785.99	-0.036
786.18	-0.074
786.37	-0.371
786.55	0.497
786.74	-1.009
786.92	0.593
787.11	0.455
787.29	-0.079
787.48	-0.378
787.67	0.414
787.85	-0.468
788.04	0.271
788.22	0.944
788.41	-0.561
788.59	-0.019
788.78	-0.413
788.96	-0.597
789.15	-0.501
789.34	0.363
789.52	-0.405
789.71	0.834
789.89	0.549
790.08	0.184
790.26	0.144
790.45	-0.088
790.63	-0.339
790.82	0.123
791.00	-0.140
791.19	0.567
791.38	0.271
791.56	-0.089
791.75	-0.071
791.93	1.049
792.12	0.745
792.30	-0.296
792.49	-0.360
792.67	0.017
792.86	0.067
793.04	0.576
793.23	-0.328
793.41	-0.138
793.60	0.468
793.78	0.155
793.97	0.765
794.15	0.921
794.34	0.686
794.52	1.039
794.71	0.221
794.89	0.367
795.08	-0.374
795.26	-0.179
795.45	0.362
795.63	0.155
795.82	0.045
796.00	0.386
796.19	0.399
796.37	-0.060
796.56	0.089
796.74	0.319
796.93	0.059
797.11	0.232
797.30	0.547
797.48	0.275
797.67	0.949
797.85	0.528
798.04	0.597
798.22	0.165
798.41	0.199
798.59	-0.077
798.77	0.214
798.96	-0.169
799.14	-0.200
799.33	0.302
799.51	0.408
799.70	0.209
799.88	0.530
800.07	-0.358
800.25	0.576
800.44	0.015
800.62	0.147
800.80	0.805
800.99	0.311
801.17	0.089
801.36	0.326
801.54	0.722
801.73	0.044
801.91	0.160
802.10	0.464
802.28	0.146
802.46	1.050
802.65	-0.043
802.83	0.664
803.02	0.657
803.20	0.512
803.39	0.072
803.57	0.506
803.75	0.120
803.94	-0.061
804.12	0.700
804.31	0.609
804.49	0.481
804.67	1.607
804.86	1.719
805.04	1.037
805.23	1.891
805.41	1.728
805.59	1.120
805.78	1.310
805.96	1.366
806.15	1.936
806.33	1.758
806.51	1.944
806.70	0.883
806.88	1.720
807.07	2.039
807.25	1.944
807.43	2.041
807.62	2.536
807.80	1.927
807.99	2.424
808.17	2.722
808.35	1.810
808.54	2.755
808.72	2.767
808.90	2.439
809.09	1.893
809.27	1.796
809.46	2.298
809.64	2.361
809.82	2.179
810.01	2.038
810.19	2.239
810.37	2.256
810.56	2.236
810.74	2.712
810.92	3.073
811.11	2.711
811.29	2.682
811.48	2.808
811.66	2.898
811.84	3.641
812.03	3.230
812.21	3.835
812.39	2.719
812.58	2.597
812.76	3.795
812.94	3.007
813.13	3.865
813.31	4.213
813.49	4.276
813.68	4.599
813.86	4.469
814.04	4.054
814.23	5.231
814.41	3.564
814.59	5.333
814.78	5.304
814.96	5.859
815.14	6.603
815.33	5.948
815.51	6.963
815.69	7.686
815.87	8.122
816.06	8.344
816.24	9.759
816.42	10.319
816.61	10.725
816.79	12.715
816.97	12.183
817.16	14.095
817.34	15.124
817.52	15.665
817.70	14.725
817.89	15.558
818.07	17.494
818.25	17.486
818.44	17.853
818.62	17.488
818.80	18.937
818.98	20.715
819.17	20.043
819.35	20.097
819.53	21.430
819.72	22.356
819.90	23.495
820.08	22.811
820.26	23.258
820.45	24.140
820.63	23.906
820.81	25.869
820.99	25.802
821.18	25.866
821.36	25.142
821.54	25.717
821.73	25.678
821.91	27.304
822.09	27.356
822.27	26.761
822.46	27.850
822.64	30.330
822.82	29.685
823.00	28.880
823.19	30.914
823.37	30.069
823.55	31.934
823.73	31.981
823.91	32.660
824.10	35.969
824.28	36.357
824.46	36.064
824.64	35.699
824.83	34.586
825.01	32.744
825.19	33.168
825.37	34.088
825.56	30.336
825.74	32.062
825.92	30.285
826.10	28.332
826.28	27.001
826.47	26.471
826.65	26.018
826.83	24.956
827.01	25.202
827.19	24.712
827.38	24.934
827.56	23.984
827.74	25.017
827.92	24.884
828.10	25.606
828.29	24.021
828.47	24.316
828.65	22.760
828.83	21.645
829.01	21.534
829.20	20.708
829.38	20.906
829.56	21.231
829.74	20.196
829.92	19.787
830.10	20.005
830.29	18.273
830.47	17.030
830.65	16.637
830.83	15.688
831.01	16.792
831.20	16.223
831.38	14.505
831.56	13.350
831.74	12.075
831.92	14.569
832.10	14.773
832.29	13.270
832.47	14.117
832.65	12.910
832.83	13.800
833.01	12.479
833.19	13.561
833.37	12.149
833.56	12.854
833.74	14.099
833.92	14.059
834.10	14.318
834.28	14.120
834.46	13.749
834.64	14.830
834.83	14.771
835.01	13.476
835.19	14.728
835.37	14.329
835.55	13.170
835.73	13.692
835.91	14.863
836.09	13.715
836.28	16.246
836.46	15.027
836.64	15.638
836.82	16.704
837.00	13.185
837.18	15.522
837.36	17.129
837.54	16.173
837.72	16.926
837.91	17.179
838.09	17.413
838.27	17.472
838.45	17.966
838.63	19.766
838.81	16.414
838.99	15.081
839.17	18.695
839.35	17.850
839.53	17.806
839.72	17.812
839.90	17.471
840.08	17.735
840.26	17.338
840.44	15.436
840.62	17.220
840.80	16.130
840.98	17.896
841.16	15.561
841.34	17.092
841.52	16.070
841.70	15.605
841.89	15.934
842.07	14.540
842.25	16.043
842.43	17.574
842.61	16.645
842.79	17.724
842.97	17.783
843.15	18.501
843.33	16.890
843.51	18.279
843.69	19.764
843.87	20.577
844.05	21.867
844.23	21.974
844.41	23.215
844.59	24.757
844.77	22.813
844.95	22.640
845.13	23.570
845.31	24.339
845.50	25.804
845.68	25.935
845.86	23.331
846.04	23.777
846.22	25.027
846.40	28.408
846.58	26.229
846.76	28.918
846.94	28.868
847.12	29.931
847.30	28.476
847.48	29.638
847.66	30.760
847.84	31.503
848.02	30.067
848.20	31.569
848.38	29.857
848.56	31.486
848.74	32.572
848.92	31.543
849.10	34.576
849.28	31.948
849.46	32.391
849.64	32.645
849.82	31.325
850.00	33.361
850.18	32.436
850.36	36.172
850.54	32.136
850.72	35.219
850.90	31.577
851.08	33.375
851.26	35.676
851.44	34.769
851.62	33.265
851.80	38.008
851.98	37.088
852.16	38.744
852.34	37.711
852.52	38.414
852.70	34.936
852.87	35.362
853.05	35.352
853.23	33.960
853.41	32.784
853.59	33.307
853.77	34.593
853.95	34.404
854.13	31.237
854.31	31.776
854.49	27.428
854.67	28.075
854.85	25.104
855.03	26.881
855.21	25.982
855.39	24.402
855.57	24.607
855.75	24.360
855.93	21.319
856.11	20.647
856.28	22.310
856.46	23.724
856.64	21.472
856.82	21.263
857.00	19.024
857.18	19.205
857.36	18.591
857.54	18.745
857.72	21.426
857.90	17.791
858.08	19.018
858.26	17.576
858.44	17.739
858.61	18.339
858.79	17.233
858.97	19.516
859.15	18.929
859.33	20.552
859.51	19.306
859.69	20.113
859.87	21.540
860.05	21.408
860.23	21.193
860.40	21.447
860.58	20.943
860.76	23.546
860.94	23.276
861.12	23.088
861.30	27.002
861.48	25.310
861.66	27.238
861.84	26.869
862.01	30.136
862.19	29.803
862.37	31.522
862.55	32.564
862.73	34.429
862.91	35.817
863.09	35.626
863.27	34.672
863.44	34.760
863.62	36.610
863.80	37.683
863.98	37.089
864.16	36.899
864.34	39.733
864.52	40.248
864.69	41.202
864.87	42.784
865.05	41.660
865.23	43.383
865.41	41.599
865.59	42.530
865.76	39.146
865.94	42.972
866.12	42.349
866.30	39.307
866.48	41.152
866.66	40.401
866.83	40.904
867.01	41.498
867.19	41.079
867.37	42.400
867.55	39.578
867.73	37.001
867.90	36.697
868.08	36.816
868.26	35.700
868.44	36.863
868.62	38.467
868.79	40.057
868.97	42.263
869.15	42.603
869.33	42.210
869.51	43.509
869.69	42.305
869.86	40.588
870.04	41.784
870.22	40.439
870.40	42.884
870.57	44.268
870.75	39.515
870.93	40.984
871.11	39.248
871.29	42.981
871.46	39.486
871.64	39.691
871.82	38.674
872.00	40.566
872.18	38.448
872.35	40.578
872.53	39.182
872.71	37.891
872.89	38.806
873.06	39.624
873.24	37.582
873.42	40.196
873.60	40.605
873.77	42.034
873.95	40.178
874.13	41.274
874.31	39.808
874.49	40.351
874.66	40.067
874.84	39.686
875.02	38.253
875.20	40.100
875.37	40.703
875.55	42.032
875.73	42.186
875.91	43.265
876.08	45.025
876.26	44.577
876.44	50.037
876.61	48.430
876.79	46.341
876.97	46.178
877.15	47.453
877.32	46.127
877.50	46.850
877.68	46.651
877.86	46.424
878.03	47.621
878.21	45.912
878.39	48.271
878.56	49.231
878.74	47.779
878.92	50.201
879.10	50.017
879.27	46.294
879.45	49.490
879.63	49.855
879.80	50.429
879.98	52.490
880.16	49.697
880.34	49.406
880.51	50.796
880.69	51.856
880.87	50.000
881.04	49.362
881.22	50.191
881.40	49.288
881.57	48.472
881.75	50.858
881.93	52.897
882.10	53.423
882.28	50.272
882.46	50.639
882.63	51.282
882.81	51.587
882.99	51.058
883.16	49.807
883.34	50.295
883.52	49.468
883.69	49.311
883.87	51.760
884.05	47.217
884.22	50.520
884.40	50.031
884.58	49.409
884.75	51.862
884.93	51.682
885.11	51.832
885.28	51.945
885.46	52.910
885.64	54.163
885.81	53.794
885.99	55.449
886.17	56.954
886.34	59.596
886.52	57.973
886.70	59.301
886.87	58.464
887.05	57.188
887.22	56.213
887.40	55.099
887.58	58.121
887.75	56.526
887.93	56.940
888.11	55.812
888.28	60.020
888.46	57.306
888.63	55.657
888.81	55.115
888.99	57.816
889.16	57.689
889.34	62.922
889.51	58.717
889.69	60.441
889.87	62.269
890.04	61.649
890.22	64.415
890.39	65.894
890.57	62.719
890.75	63.730
890.92	63.836
891.10	65.504
891.27	67.577
891.45	67.765
891.63	68.453
891.80	68.049
891.98	65.064
892.15	64.278
892.33	65.069
892.51	65.767
892.68	62.909
892.86	64.247
893.03	65.763
893.21	63.340
893.38	62.937
893.56	62.042
893.74	62.606
893.91	64.906
894.09	59.733
894.26	59.584
894.44	61.544
894.61	58.174
894.79	55.141
894.96	57.447
895.14	54.961
895.32	55.838
895.49	55.104
895.67	54.545
895.84	53.515
896.02	55.445
896.19	55.593
896.37	53.731
896.54	56.229
896.72	57.686
896.89	59.157
897.07	55.468
897.25	58.586
897.42	59.735
897.60	60.353
897.77	62.275
897.95	59.809
898.12	63.171
898.30	63.409
898.47	66.439
898.65	62.679
898.82	61.841
899.00	64.975
899.17	64.549
899.35	64.066
899.52	64.848
899.70	64.812
899.87	61.983
900.05	65.244
900.22	64.319
900.40	64.781
900.57	66.043
900.75	66.080
900.92	66.293
901.10	62.990
901.27	62.309
901.45	64.604
901.62	62.617
901.80	58.747
901.97	61.622
902.15	61.489
902.32	61.009
902.50	60.773
902.67	57.875
902.85	59.769
903.02	59.356
903.20	60.024
903.37	58.928
903.54	57.517
903.72	57.154
903.89	56.665
904.07	57.380
904.24	56.235
904.42	55.499
904.59	52.910
904.77	50.303
904.94	49.231
905.12	50.492
905.29	47.743
905.47	47.913
905.64	46.157
905.81	46.701
905.99	48.479
906.16	48.209
906.34	46.858
906.51	47.550
906.69	48.667
906.86	48.496
907.03	46.511
907.21	49.473
907.38	44.812
907.56	39.984
907.73	43.665
907.91	44.659
908.08	44.945
908.25	40.510
908.43	44.143
908.60	44.105
908.78	44.788
908.95	43.433
909.13	45.999
909.30	45.110
909.47	42.887
909.65	43.589
909.82	42.042
910.00	44.079
910.17	40.708
910.34	42.833
910.52	43.788
910.69	42.573
910.87	42.551
911.04	46.387
911.21	44.668
911.39	43.964
911.56	46.212
911.73	44.058
911.91	45.508
912.08	44.454
912.26	45.571
912.43	45.085
912.60	52.358
912.78	50.581
912.95	53.777
913.13	49.662
913.30	51.719
913.47	57.653
913.65	56.538
913.82	53.053
913.99	52.110
914.17	49.444
914.34	49.482
914.51	50.892
914.69	50.073
914.86	49.702
915.03	49.678
915.21	48.833
915.38	49.276
915.56	52.095
915.73	53.366
915.90	54.677
916.08	56.100
916.25	54.184
916.42	50.156
916.60	50.711
916.77	48.468
916.94	46.964
917.12	49.702
917.29	50.722
917.46	50.407
917.64	45.349
917.81	45.736
917.98	46.896
918.16	43.952
918.33	47.444
918.50	43.063
918.67	41.869
918.85	44.105
919.02	42.114
919.19	41.379
919.37	42.159
919.54	46.467
919.71	42.385
919.89	45.963
920.06	43.330
920.23	42.700
920.41	37.219
920.58	43.052
920.75	44.871
920.92	38.851
921.10	39.368
921.27	40.789
921.44	43.078
921.62	41.308
921.79	40.012
921.96	42.957
922.13	40.012
922.31	41.207
922.48	43.290
922.65	41.396
922.82	42.155
923.00	39.624
923.17	39.308
923.34	42.335
923.52	44.500
923.69	45.651
923.86	40.838
924.03	44.803
924.21	45.571
924.38	45.070
924.55	45.284
924.72	47.622
924.90	48.791
925.07	50.655
925.24	53.112
925.41	55.997
925.59	52.829
925.76	51.657
925.93	57.868
926.10	55.434
926.28	55.444
926.45	55.246
926.62	54.620
926.79	52.381
926.96	58.778
927.14	55.524
927.31	54.224
927.48	57.633
927.65	54.454
927.83	60.359
928.00	57.556
928.17	59.480
928.34	60.524
928.51	62.887
928.69	61.982
928.86	62.383
929.03	63.959
929.20	57.821
929.37	64.052
929.55	71.133
929.72	66.543
929.89	71.193
930.06	74.938
930.23	72.319
930.41	66.748
930.58	68.601
930.75	71.547
930.92	69.900
931.09	68.000
931.27	72.097
931.44	70.345
931.61	68.787
931.78	68.643
931.95	69.210
932.12	70.343
932.30	68.766
932.47	66.232
932.64	68.931
932.81	69.002
932.98	66.577
933.16	67.916
933.33	63.298
933.50	67.245
933.67	63.006
933.84	66.456
934.01	68.250
934.18	63.441
934.36	61.217
934.53	58.326
934.70	63.938
934.87	60.948
935.04	58.467
935.21	63.009
935.38	61.625
935.56	64.265
935.73	59.701
935.90	59.891
936.07	60.306
936.24	64.862
936.41	61.083
936.58	59.913
936.76	62.334
936.93	68.555
937.10	64.031
937.27	59.382
937.44	63.164
937.61	66.314
937.78	65.533
937.95	65.380
938.13	64.466
938.30	59.670
938.47	60.532
938.64	62.247
938.81	61.004
938.98	61.140
939.15	58.111
939.32	60.600
939.49	57.849
939.66	62.364
939.84	66.209
940.01	65.755
940.18	70.952
940.35	59.903
940.52	61.213
940.69	59.746
940.86	63.556
941.03	58.641
941.20	56.608
941.37	65.444
941.54	63.647
941.71	58.046
941.89	61.208
942.06	57.242
942.23	57.602
942.40	62.989
942.57	58.926
942.74	65.280
942.91	59.848
943.08	65.102
943.25	65.322
943.42	68.961
943.59	60.419
943.76	61.943
943.93	62.074
944.10	68.915
944.27	56.971
944.44	66.925
944.61	62.999
944.79	61.972
944.96	64.933
945.13	63.233
945.30	61.653
945.47	58.630
945.64	63.768
945.81	58.172
945.98	64.414
946.15	55.630
946.32	63.143
946.49	57.635
946.66	62.366
946.83	51.374
947.00	58.214
947.17	51.108
947.34	51.237
947.51	60.949
947.68	55.363
947.85	58.709
948.02	56.429
948.19	59.141
948.36	59.222
948.53	60.208
948.70	55.376
948.87	57.800
949.04	53.858
949.21	51.155
949.38	60.374
949.55	52.890
949.72	53.707
949.89	44.531
950.06	52.734
950.23	46.465
950.40	43.284
950.57	55.856
950.74	52.297
950.91	48.897
951.08	48.780
951.25	53.232
951.42	55.577
951.59	46.835
951.76	43.636
951.93	48.561
952.10	42.754
952.27	37.719
952.44	44.082
952.61	39.355
952.77	46.110
952.94	43.089
953.11	42.476
953.28	35.472
953.45	42.276
953.62	36.116
953.79	41.852
953.96	32.422
954.13	38.889
954.30	34.677
954.47	40.531
954.64	37.885
954.81	34.205
954.98	34.254
955.15	38.800
955.32	45.518
955.49	41.292
955.65	42.200
955.82	42.566
955.99	37.433
956.16	45.562
956.33	36.978
956.50	52.140
956.67	38.632
956.84	37.079
957.01	42.566
957.18	43.936
957.35	36.895
957.52	45.582
957.68	47.768
957.85	40.000
958.02	43.860
958.19	45.366
958.36	56.635
958.53	47.135
958.70	41.328
958.87	46.756
959.04	43.846
959.21	33.700
959.37	52.727
959.54	50.575
959.71	37.204
959.88	44.469
960.05	39.430
960.22	42.718
960.39	33.816
960.56	41.447
960.72	38.462
960.89	32.696
961.06	33.125
961.23	29.478
961.40	31.703
961.57	28.009
961.74	32.806
961.90	35.354
962.07	39.030
962.24	35.171
962.41	37.086
962.58	35.470
962.75	28.033
962.92	40.087
963.08	27.191
963.25	24.078
963.42	22.062
963.59	38.136
963.76	34.312
963.93	22.477
964.10	35.116
964.26	29.498
964.43	28.176
964.60	31.059
964.77	31.713
964.94	32.547
965.10	29.339
965.27	28.375
965.44	33.030
965.61	20.109
965.78	34.091
965.95	16.468
966.11	34.562
966.28	16.343
966.45	23.757
966.62	24.519
966.79	35.450
966.95	39.593
967.12	39.640
967.29	31.746
967.46	34.163
967.63	40.213
967.79	31.236
967.96	37.389
968.13	30.604
968.30	27.165
968.47	29.375
968.63	26.866
968.80	30.060
968.97	35.763
969.14	30.891
969.31	28.632
969.47	28.053
969.64	25.251
969.81	28.541
969.98	25.245
970.14	41.215
970.31	23.478
970.48	28.125
970.65	25.647
970.81	36.198
970.98	26.767
971.15	22.432
971.32	22.889
971.48	29.011
971.65	39.892
971.82	26.411
971.99	30.952
972.15	38.005
972.32	26.291
972.49	28.145
972.66	31.920
972.82	23.476
972.99	15.765
973.16	27.778
973.33	31.517
973.49	29.723
973.66	33.069
973.83	34.184
974.00	32.432
974.16	39.318
974.33	35.475
974.50	35.266
974.67	33.333
974.83	41.162
975.00	26.555
975.17	31.954
975.33	36.682
975.50	31.452
975.67	44.700
975.84	36.325
976.00	32.706
976.17	30.588
976.34	41.206
976.50	31.492
976.67	35.780
976.84	29.082
977.00	49.645
977.17	35.211
977.34	41.148
977.50	35.121
977.67	35.616
977.84	38.968
978.01	43.455
978.17	50.630
978.34	50.620
978.51	35.835
978.67	52.294
978.84	33.563
979.01	36.321
979.17	48.211
979.34	36.788
979.51	33.750
979.67	48.786
979.84	51.781
980.01	48.975
980.17	37.644
980.34	51.563
980.51	48.268
980.67	47.013
980.84	44.536
981.01	40.404
981.17	38.824
981.34	32.632
981.50	42.067
981.67	46.402
981.84	51.100
982.00	37.113
982.17	38.168
982.34	43.224
982.50	51.626
982.67	42.894
982.84	37.383
983.00	52.219
983.17	40.367
983.33	45.111
983.50	44.619
983.67	37.225
983.83	35.412
984.00	43.990
984.17	37.339
984.33	37.500
984.50	36.786
984.66	41.753
984.83	30.342
985.00	37.333
985.16	38.481
985.33	42.045
985.49	34.820
985.66	42.369
985.83	38.525
985.99	32.919
986.16	34.442
986.32	32.731
986.49	35.294
986.66	32.574
986.82	44.105
986.99	35.198
987.15	52.804
987.32	53.066
987.49	40.045
987.65	41.725
987.82	44.072
987.98	52.347
988.15	54.707
988.31	44.444
988.48	55.924
988.65	50.794
988.81	47.204
988.98	41.617
989.14	51.659
989.31	51.976
989.47	49.279
989.64	53.153
989.80	61.972
989.97	45.022
990.14	49.574
990.30	45.673
990.47	48.301
990.63	57.541
990.80	55.670
990.96	42.396
991.13	54.018
991.29	56.532
991.46	63.420
991.62	49.070
991.79	50.313
991.95	60.271
992.12	55.556
992.29	51.829
992.45	59.174
992.62	47.982
992.78	61.635
992.95	65.072
993.11	61.745
993.28	60.391
993.44	57.768
993.61	57.884
993.77	62.565
993.94	59.039
994.10	53.376
994.27	75.061
994.43	60.549
994.60	58.500
994.76	59.122
994.93	67.198
995.09	71.968
995.26	70.146
995.42	55.718
995.59	62.797
995.75	69.907
995.92	69.647
996.08	60.235
996.25	55.309
996.41	54.167
996.58	67.352
996.74	57.962
996.91	52.742
997.07	65.366
997.23	61.275
997.40	57.837
997.56	40.888
997.73	59.500
997.89	48.098
998.06	51.322
998.22	42.260
998.39	50.630
998.55	52.656
998.72	51.168
998.88	62.250
999.05	53.864
999.21	51.074
999.37	62.766
999.54	66.919
999.70	63.457
999.87	54.523
1000.03	62.785
1000.20	60.096
1000.36	55.156
1000.52	53.138
1000.69	58.788
1000.85	51.404
1001.02	52.055
1001.18	47.610
1001.35	57.325
1001.51	51.225
1001.67	47.661
1001.84	47.679
1002.00	48.529
1002.17	48.853
1002.33	59.251
1002.50	52.822
1002.66	55.924
1002.82	60.050
1002.99	65.867
1003.15	64.662
1003.32	67.419
1003.48	50.718
1003.64	58.270
1003.81	68.258
1003.97	65.297
1004.14	81.280
1004.30	69.287
1004.46	74.151
1004.63	71.645
1004.79	57.632
1004.95	63.239
1005.12	69.505
1005.28	65.707
1005.45	68.894
1005.61	77.506
1005.77	74.384
1005.94	61.659
1006.10	82.368
1006.26	73.141
1006.43	66.588
1006.59	66.854
1006.76	68.865
1006.92	70.353
1007.08	89.713
1007.25	65.342
1007.41	56.595
1007.57	63.971
1007.74	74.811
1007.90	66.237
1008.06	72.135
1008.23	75.641
1008.39	69.038
1008.55	75.576
1008.72	82.045
1008.88	70.000
1009.04	69.978
1009.21	70.883
1009.37	81.316
1009.53	79.376
1009.70	86.828
1009.86	92.328
1010.02	66.287
1010.19	84.286
1010.35	73.451
1010.51	86.635
1010.68	70.455
1010.84	83.202
1011.00	74.872
1011.17	76.454
1011.33	74.328
1011.49	79.096
1011.66	66.923
1011.82	63.683
1011.98	90.634
1012.14	70.411
1012.31	69.912
1012.47	71.100
1012.63	69.828
1012.80	77.778
1012.96	68.449
1013.12	72.778
1013.29	76.454
1013.45	58.486
1013.61	61.499
1013.77	81.912
1013.94	63.185
1014.10	65.455
1014.26	56.188
1014.43	58.791
1014.59	51.359
1014.75	51.295
1014.91	59.268
1015.08	56.416
1015.24	51.453
1015.40	50.750
1015.56	56.053
1015.73	52.840
1015.89	56.183
1016.05	52.607
1016.21	58.098
1016.38	56.032
1016.54	60.234
1016.70	55.882
1016.86	56.034
1017.03	46.322
1017.19	50.125
1017.35	46.226
1017.51	54.247
1017.68	47.013
1017.84	50.588
1018.00	70.757
1018.16	53.611
1018.33	63.202
1018.49	63.492
1018.65	55.041
1018.81	60.550
1018.97	49.575
1019.14	50.681
1019.30	49.575
1019.46	53.265
1019.62	51.172
1019.79	59.248
1019.95	53.728
1020.11	61.371
1020.27	53.770
1020.43	51.579
1020.60	72.727
1020.76	67.041
1020.92	66.947
1021.08	58.224
1021.24	64.286
1021.41	52.667
1021.57	62.931
1021.73	63.279
1021.89	64.803
1022.05	59.582
1022.21	53.611
1022.38	51.714
1022.54	55.874
1022.70	64.000
1022.86	64.841
1023.02	63.768
1023.19	73.026
1023.35	55.305
1023.51	46.474
1023.67	59.302
1023.83	61.450
1023.99	58.099
1024.16	51.984
1024.32	61.489
1024.48	68.085
1024.64	34.106
1024.80	52.128
1024.96	57.407
1025.12	41.066
1025.29	47.703
1025.45	67.500
1025.61	39.355
1025.77	49.458
1025.93	50.932
1026.09	55.212
1026.26	50.000
1026.42	55.738
1026.58	55.709
1026.74	39.216
1026.90	46.526
1027.06	47.195
1027.22	46.644
1027.38	55.674
1027.55	55.340
1027.71	51.163
1027.87	48.814
1028.03	51.793
1028.19	45.085
1028.35	50.923
1028.51	36.688
1028.67	46.388
1028.83	16.450
1029.00	45.172
1029.16	47.500
1029.32	36.090
1029.48	39.062
1029.64	46.557
1029.80	59.350
1029.96	64.550
1030.12	45.421
1030.28	33.333
1030.44	51.587
1030.61	25.738
1030.77	45.902
1030.93	27.381
1031.09	30.980
1031.25	43.655
1031.41	52.610
1031.57	28.692
1031.73	36.667
1031.89	48.763
1032.05	40.824
1032.21	17.551
1032.37	53.237
1032.53	41.199
1032.69	24.034
1032.86	28.365
1033.02	31.894
1033.18	30.769
1033.34	40.143
1033.50	22.280
1033.66	52.075
1033.82	51.282
1033.98	10.345
1034.14	46.544
1034.30	42.748
1034.46	41.353
1034.62	53.333
1034.78	38.603
1034.94	24.188
1035.10	8.738
1035.26	30.928
1035.42	51.987
1035.58	31.047
1035.74	44.813
1035.90	41.463
1036.06	43.446
1036.22	27.099
1036.38	39.648
1036.54	39.754
1036.70	32.500
1036.86	26.289
1037.02	43.956
1037.18	58.095
1037.34	41.270
1037.50	44.175
1037.66	36.316
1037.82	64.931
1037.98	43.011
1038.14	45.304
1038.30	42.308
1038.46	49.281
1038.62	28.169
1038.78	26.923
1038.94	39.409
1039.10	44.498
1039.26	40.948
1039.42	30.275
1039.58	41.420
1039.74	50.628
1039.90	47.500
1040.06	59.512
>>>>>End Processed Spectral Data<<<<<
