SpectraSuite Data File
++++++++++++++++++++++++++++++++++++
Date: Wed Jan 25 18:52:35 EET 2017
User: TheoProf
Dark Spectrum Present: Yes
Reference Spectrum Present: Yes
Number of Sampled Component Spectra: 1
Spectrometers: USB4C02475
Integration Time (usec): 64136 (USB4C02475)
Spectra Averaged: 1 (USB4C02475)
Boxcar Smoothing: 0 (USB4C02475)
Correct for Electrical Dark: No (USB4C02475)
Strobe/Lamp Enabled: No (USB4C02475)
Correct for Detector Non-linearity: No (USB4C02475)
Correct for Stray Light: No (USB4C02475)
Number of Pixels in Processed Spectrum: 3648
>>>>>Begin Processed Spectral Data<<<<<
344.91	150.000
345.13	150.000
345.35	150.000
345.57	242.857
345.79	800.000
346.00	136.842
346.22	825.000
346.44	24.138
346.66	-280.000
346.87	93.103
347.09	620.000
347.31	69.565
347.53	7.843
347.74	57.895
347.96	57.143
348.18	266.667
348.40	157.895
348.61	61.538
348.83	130.303
349.05	68.852
349.27	45.833
349.48	-5.882
349.70	176.471
349.92	-32.258
350.14	109.836
350.35	-7.407
350.57	58.333
350.79	38.235
351.01	72.308
351.22	-290.000
351.44	43.590
351.66	-350.000
351.87	-66.667
352.09	37.500
352.31	102.857
352.53	26.667
352.74	13.793
352.96	30.000
353.18	9.756
353.40	700.000
353.61	-2.381
353.83	281.818
354.05	-250.000
354.26	-3.030
354.48	47.619
354.70	-226.316
354.92	-80.769
355.13	117.241
355.35	30.189
355.57	78.431
355.78	54.839
356.00	91.667
356.22	78.082
356.44	25.000
356.65	5.769
356.87	161.538
357.09	80.000
357.30	17.347
357.52	483.333
357.74	-16.364
357.95	283.333
358.17	129.545
358.39	34.884
358.60	15.625
358.82	30.769
359.04	-220.000
359.26	7.843
359.47	-22.222
359.69	31.683
359.91	-5.000
360.12	230.000
360.34	59.459
360.56	100.000
360.77	-10.256
360.99	5.172
361.21	14.286
361.42	6.383
361.64	187.500
361.86	-70.833
362.07	12.195
362.29	38.636
362.51	20.238
362.72	161.538
362.94	80.000
363.16	34.091
363.37	7.812
363.59	-32.000
363.81	-50.000
364.02	100.000
364.24	-100.000
364.46	101.923
364.67	1225.000
364.89	-45.455
365.11	55.556
365.32	-39.286
365.54	-100.000
365.76	20.690
365.97	39.394
366.19	-0.000
366.41	121.429
366.62	108.571
366.84	628.571
367.05	-29.091
367.27	-39.394
367.49	-0.000
367.70	60.000
367.92	36.842
368.14	7.143
368.35	-2.941
368.57	40.506
368.79	54.717
369.00	67.347
369.22	-200.000
369.43	26.563
369.65	75.000
369.87	114.286
370.08	-36.111
370.30	120.000
370.51	60.000
370.73	-1.515
370.95	-19.231
371.16	33.333
371.38	325.000
371.60	766.667
371.81	-2.632
372.03	79.710
372.24	375.000
372.46	-13.793
372.68	58.333
372.89	7.018
373.11	-35.593
373.32	100.000
373.54	-63.158
373.76	36.735
373.97	18.919
374.19	-5.128
374.40	44.828
374.62	-115.625
374.84	100.000
375.05	62.963
375.27	-12.000
375.48	47.059
375.70	-48.276
375.92	50.000
376.13	6.667
376.35	41.270
376.56	-185.714
376.78	-34.091
376.99	13.846
377.21	-125.581
377.43	196.154
377.64	63.636
377.86	85.714
378.07	-420.000
378.29	6.818
378.51	29.630
378.72	-9.589
378.94	44.286
379.15	5.263
379.37	38.000
379.58	331.250
379.80	87.500
380.01	-76.316
380.23	91.111
380.45	-65.789
380.66	-53.623
380.88	31.818
381.09	-3.125
381.31	-3.125
381.52	-17.391
381.74	91.579
381.95	-380.000
382.17	4.545
382.39	-53.448
382.60	38.095
382.82	-40.000
383.03	-168.750
383.25	32.500
383.46	-78.947
383.68	-9.091
383.89	41.905
384.11	38.983
384.32	18.605
384.54	54.545
384.76	47.826
384.97	58.824
385.19	22.917
385.40	-8.065
385.62	22.414
385.83	19.048
386.05	111.667
386.26	-103.704
386.48	9.836
386.69	-4.938
386.91	0.000
387.12	38.462
387.34	-17.308
387.55	-294.444
387.77	35.616
387.98	26.471
388.20	31.579
388.41	-108.571
388.63	10.000
388.84	58.824
389.06	1.515
389.27	35.644
389.49	47.692
389.70	84.314
389.92	-60.714
390.13	79.592
390.35	-23.529
390.56	25.490
390.78	-3.409
390.99	4.225
391.21	0.000
391.42	20.988
391.64	40.000
391.85	27.778
392.07	-350.000
392.28	9.836
392.50	12.222
392.71	-54.839
392.93	12.069
393.14	15.094
393.36	37.736
393.57	3.226
393.79	-3500.000
394.00	23.529
394.22	-4.167
394.43	17.204
394.65	9.677
394.86	22.115
395.08	36.709
395.29	58.824
395.50	-35.366
395.72	-119.355
395.93	-0.752
396.15	55.645
396.36	47.126
396.58	19.130
396.79	31.081
397.01	95.312
397.22	8.955
397.44	4.202
397.65	32.500
397.87	24.324
398.08	9.402
398.29	7.353
398.51	21.333
398.72	13.636
398.94	-28.070
399.15	-10.891
399.37	29.851
399.58	12.766
399.80	-5.882
400.01	19.048
400.22	-29.630
400.44	2.222
400.65	8.824
400.87	-12.069
401.08	13.636
401.30	-25.000
401.51	20.968
401.72	27.742
401.94	4.310
402.15	-23.276
402.37	22.642
402.58	-34.722
402.80	-24.658
403.01	-44.444
403.22	-8.421
403.44	25.758
403.65	51.471
403.87	24.286
404.08	17.949
404.30	-15.385
404.51	32.203
404.72	38.298
404.94	28.244
405.15	29.054
405.37	21.260
405.58	-58.571
405.79	-14.737
406.01	13.072
406.22	4.800
406.44	-2.837
406.65	1.250
406.86	6.623
407.08	-30.556
407.29	16.447
407.51	18.590
407.72	0.000
407.93	38.158
408.15	4.294
408.36	13.139
408.58	29.730
408.79	-1.408
409.00	44.516
409.22	29.508
409.43	29.078
409.64	-12.500
409.86	-11.111
410.07	-5.696
410.29	14.019
410.50	-16.949
410.71	-14.379
410.93	14.973
411.14	15.337
411.35	10.458
411.57	0.000
411.78	9.467
412.00	27.273
412.21	-17.123
412.42	-22.754
412.64	-10.606
412.85	39.181
413.06	5.963
413.28	4.667
413.49	3.865
413.70	25.989
413.92	6.207
414.13	-18.750
414.34	10.471
414.56	4.294
414.77	2.941
414.98	6.806
415.20	12.717
415.41	25.000
415.63	13.596
415.84	25.490
416.05	16.957
416.27	-4.091
416.48	27.459
416.69	31.081
416.91	30.918
417.12	23.958
417.33	28.692
417.55	4.651
417.76	7.471
417.97	19.024
418.19	34.058
418.40	30.769
418.61	40.336
418.83	16.742
419.04	49.099
419.25	44.262
419.46	36.681
419.68	35.238
419.89	23.529
420.10	31.381
420.32	30.677
420.53	24.900
420.74	48.462
420.96	49.402
421.17	42.292
421.38	19.923
421.60	28.333
421.81	32.917
422.02	41.379
422.23	36.100
422.45	37.407
422.66	52.500
422.87	32.824
423.09	11.454
423.30	50.926
423.51	49.446
423.73	52.814
423.94	47.059
424.15	38.610
424.36	47.500
424.58	31.834
424.79	40.594
425.00	40.141
425.22	51.667
425.43	43.116
425.64	37.338
425.85	20.243
426.07	31.861
426.28	36.986
426.49	34.317
426.71	27.193
426.92	28.107
427.13	24.422
427.34	38.788
427.56	47.321
427.77	41.406
427.98	27.419
428.19	31.274
428.41	49.488
428.62	36.301
428.83	35.933
429.04	24.845
429.26	41.003
429.47	48.615
429.68	45.231
429.89	41.071
430.11	41.667
430.32	40.369
430.53	36.667
430.74	40.994
430.96	51.832
431.17	52.991
431.38	41.613
431.59	46.789
431.81	55.376
432.02	39.888
432.23	50.227
432.44	54.872
432.66	66.760
432.87	57.447
433.08	59.028
433.29	61.168
433.51	61.765
433.72	62.529
433.93	63.403
434.14	64.789
434.35	60.291
434.57	51.782
434.78	69.880
434.99	76.293
435.20	76.117
435.42	81.557
435.63	88.007
435.84	81.849
436.05	91.887
436.26	71.042
436.48	71.402
436.69	75.745
436.90	66.987
437.11	67.225
437.32	67.223
437.54	67.360
437.75	68.986
437.96	59.281
438.17	77.088
438.38	79.116
438.60	68.657
438.81	62.651
439.02	61.660
439.23	56.111
439.44	62.891
439.66	58.929
439.87	63.953
440.08	68.182
440.29	64.729
440.50	56.311
440.72	49.357
440.93	53.476
441.14	61.759
441.35	62.403
441.56	60.606
441.77	67.488
441.99	59.536
442.20	70.789
442.41	69.052
442.62	67.241
442.83	62.500
443.04	75.123
443.26	70.813
443.47	70.677
443.68	75.758
443.89	80.847
444.10	75.448
444.31	75.136
444.53	71.953
444.74	66.930
444.95	76.854
445.16	70.134
445.37	68.932
445.58	71.290
445.80	72.213
446.01	71.729
446.22	72.479
446.43	66.258
446.64	60.643
446.85	61.832
447.06	65.149
447.28	63.012
447.49	73.113
447.70	66.514
447.91	71.644
448.12	62.667
448.33	65.793
448.54	66.461
448.76	62.589
448.97	65.867
449.18	71.244
449.39	63.400
449.60	59.831
449.81	64.881
450.02	65.585
450.23	57.031
450.45	53.684
450.66	54.465
450.87	60.334
451.08	56.559
451.29	59.249
451.50	49.802
451.71	46.144
451.92	46.569
452.13	57.463
452.35	51.671
452.56	53.558
452.77	61.161
452.98	62.466
453.19	60.153
453.40	62.598
453.61	71.409
453.82	70.596
454.03	66.871
454.25	64.000
454.46	73.298
454.67	67.823
454.88	64.948
455.09	61.011
455.30	63.670
455.51	66.249
455.72	65.176
455.93	71.299
456.14	65.076
456.35	64.838
456.56	67.698
456.78	62.708
456.99	66.667
457.20	60.133
457.41	62.907
457.62	57.780
457.83	60.440
458.04	58.455
458.25	56.995
458.46	54.582
458.67	55.501
458.88	56.550
459.09	52.077
459.30	52.556
459.51	48.144
459.73	53.936
459.94	50.682
460.15	42.638
460.36	44.691
460.57	41.764
460.78	35.701
460.99	37.642
461.20	30.231
461.41	30.828
461.62	32.726
461.83	26.476
462.04	28.963
462.25	23.675
462.46	22.364
462.67	23.424
462.88	24.697
463.09	17.349
463.30	17.227
463.51	15.703
463.72	10.733
463.93	12.659
464.15	10.243
464.36	11.260
464.57	6.265
464.78	5.580
464.99	7.591
465.20	3.914
465.41	5.887
465.62	3.011
465.83	4.220
466.04	3.228
466.25	0.930
466.46	6.466
466.67	2.959
466.88	-0.365
467.09	1.851
467.30	2.044
467.51	4.752
467.72	3.477
467.93	1.767
468.14	1.854
468.35	2.054
468.56	4.026
468.77	2.599
468.98	-0.576
469.19	0.568
469.40	4.932
469.61	-0.505
469.82	3.931
470.03	-0.368
470.24	0.000
470.45	0.057
470.66	3.041
470.87	4.848
471.08	0.963
471.29	1.600
471.50	1.117
471.71	2.955
471.92	1.274
472.13	1.830
472.34	0.742
472.55	0.429
472.76	2.707
472.97	-0.488
473.18	1.085
473.39	1.424
473.60	0.602
473.81	1.107
474.01	1.383
474.22	3.638
474.43	0.099
474.64	1.982
474.85	2.461
475.06	1.123
475.27	2.064
475.48	0.046
475.69	1.533
475.90	0.792
476.11	2.726
476.32	0.787
476.53	1.034
476.74	1.212
476.95	1.906
477.16	2.179
477.37	0.976
477.58	1.559
477.79	0.129
478.00	1.009
478.21	0.733
478.41	2.324
478.62	0.945
478.83	1.602
479.04	0.852
479.25	1.660
479.46	0.512
479.67	1.688
479.88	2.209
480.09	-0.309
480.30	1.831
480.51	0.442
480.72	1.511
480.93	1.375
481.14	1.186
481.34	1.475
481.55	1.726
481.76	1.889
481.97	1.880
482.18	2.416
482.39	2.047
482.60	1.634
482.81	0.270
483.02	2.239
483.23	1.250
483.44	2.617
483.65	1.846
483.85	3.234
484.06	1.790
484.27	2.602
484.48	3.126
484.69	3.182
484.90	3.205
485.11	2.958
485.32	2.905
485.53	3.358
485.73	3.957
485.94	3.420
486.15	2.738
486.36	3.844
486.57	3.916
486.78	2.959
486.99	2.705
487.20	3.123
487.41	2.559
487.61	2.646
487.82	4.046
488.03	4.820
488.24	3.936
488.45	2.968
488.66	1.674
488.87	3.769
489.08	2.894
489.28	3.238
489.49	2.970
489.70	4.072
489.91	2.348
490.12	3.888
490.33	3.108
490.54	4.059
490.74	3.858
490.95	3.367
491.16	2.036
491.37	1.757
491.58	3.832
491.79	2.666
492.00	2.755
492.20	3.197
492.41	2.653
492.62	2.145
492.83	2.968
493.04	2.983
493.25	1.865
493.45	2.431
493.66	2.643
493.87	3.040
494.08	0.688
494.29	2.346
494.50	2.400
494.70	2.233
494.91	2.592
495.12	2.361
495.33	2.620
495.54	2.738
495.75	1.795
495.95	1.923
496.16	1.942
496.37	1.964
496.58	1.600
496.79	1.954
496.99	2.711
497.20	2.631
497.41	2.711
497.62	1.756
497.83	1.167
498.04	0.664
498.24	2.265
498.45	2.434
498.66	1.937
498.87	2.053
499.08	2.210
499.28	1.408
499.49	1.598
499.70	1.312
499.91	0.750
500.12	1.609
500.32	1.311
500.53	1.250
500.74	2.515
500.95	2.542
501.15	1.826
501.36	2.218
501.57	3.218
501.78	2.381
501.99	4.169
502.19	3.435
502.40	4.038
502.61	3.636
502.82	4.578
503.02	3.993
503.23	4.483
503.44	5.522
503.65	5.488
503.86	7.001
504.06	7.560
504.27	7.832
504.48	8.795
504.69	8.941
504.89	10.583
505.10	10.414
505.31	12.440
505.52	12.681
505.72	14.402
505.93	16.158
506.14	15.796
506.35	15.710
506.55	17.709
506.76	18.491
506.97	19.847
507.18	20.887
507.38	21.682
507.59	24.473
507.80	24.668
508.01	27.004
508.21	26.225
508.42	28.311
508.63	30.484
508.84	30.823
509.04	34.059
509.25	34.919
509.46	35.915
509.67	35.019
509.87	36.261
510.08	38.453
510.29	40.511
510.49	40.418
510.70	40.762
510.91	40.454
511.12	40.716
511.32	40.350
511.53	40.385
511.74	40.581
511.94	40.554
512.15	39.848
512.36	40.152
512.57	39.541
512.77	39.958
512.98	39.960
513.19	41.503
513.39	41.785
513.60	42.549
513.81	42.201
514.01	43.877
514.22	43.721
514.43	44.865
514.64	44.718
514.84	46.861
515.05	46.400
515.26	47.092
515.46	46.329
515.67	45.166
515.88	44.457
516.08	44.400
516.29	46.245
516.50	46.717
516.70	47.735
516.91	49.268
517.12	48.899
517.32	47.855
517.53	48.084
517.74	47.858
517.95	46.934
518.15	45.725
518.36	46.642
518.57	44.936
518.77	47.293
518.98	47.016
519.19	47.974
519.39	49.017
519.60	50.711
519.80	50.816
520.01	50.417
520.22	50.440
520.42	52.283
520.63	52.081
520.84	51.825
521.04	52.085
521.25	51.933
521.46	51.621
521.66	53.728
521.87	55.406
522.08	59.327
522.28	60.714
522.49	62.654
522.70	64.811
522.90	67.236
523.11	70.270
523.31	72.608
523.52	75.421
523.73	76.472
523.93	76.785
524.14	77.805
524.35	78.050
524.55	78.682
524.76	79.468
524.97	79.636
525.17	81.958
525.38	79.097
525.58	81.685
525.79	80.309
526.00	82.999
526.20	84.194
526.41	83.581
526.61	82.983
526.82	84.618
527.03	86.425
527.23	83.353
527.44	81.354
527.64	79.957
527.85	80.865
528.06	80.910
528.26	82.632
528.47	79.712
528.68	79.311
528.88	77.740
529.09	77.859
529.29	81.034
529.50	83.585
529.70	80.669
529.91	79.048
530.12	77.906
530.32	78.281
530.53	77.623
530.73	81.769
530.94	80.175
531.15	82.335
531.35	85.451
531.56	82.589
531.76	80.493
531.97	80.782
532.17	78.470
532.38	78.592
532.59	77.352
532.79	79.491
533.00	79.627
533.20	79.442
533.41	79.631
533.61	77.899
533.82	81.465
534.03	81.823
534.23	82.897
534.44	86.999
534.64	88.516
534.85	88.666
535.05	89.649
535.26	88.857
535.46	86.196
535.67	84.173
535.88	84.152
536.08	83.390
536.29	82.549
536.49	80.971
536.70	80.846
536.90	81.431
537.11	82.816
537.31	86.092
537.52	87.357
537.72	87.077
537.93	87.000
538.13	89.213
538.34	91.937
538.55	89.383
538.75	90.620
538.96	89.253
539.16	87.124
539.37	87.020
539.57	86.796
539.78	88.160
539.98	88.553
540.19	90.432
540.39	91.362
540.60	93.548
540.80	95.709
541.01	93.271
541.21	92.779
541.42	92.471
541.62	91.306
541.83	90.861
542.03	87.625
542.24	87.095
542.44	83.338
542.65	82.843
542.85	82.684
543.06	81.863
543.26	83.561
543.47	84.570
543.67	84.967
543.88	86.432
544.08	86.132
544.29	83.023
544.49	83.980
544.70	83.956
544.90	87.668
545.11	90.379
545.31	92.951
545.52	91.228
545.72	89.028
545.93	85.189
546.13	85.073
546.34	84.220
546.54	84.435
546.75	87.419
546.95	91.308
547.15	94.307
547.36	92.965
547.56	92.605
547.77	91.089
547.97	91.567
548.18	89.183
548.38	88.309
548.59	85.444
548.79	87.059
549.00	88.751
549.20	87.968
549.41	88.836
549.61	88.287
549.81	83.799
550.02	80.986
550.22	79.039
550.43	78.474
550.63	81.097
550.84	78.985
551.04	78.674
551.25	79.232
551.45	80.013
551.65	79.015
551.86	80.652
552.06	80.701
552.27	82.315
552.47	82.403
552.68	84.571
552.88	85.990
553.08	86.184
553.29	86.740
553.49	86.846
553.70	88.075
553.90	86.973
554.11	87.403
554.31	86.929
554.51	88.288
554.72	86.742
554.92	84.220
555.13	85.575
555.33	81.904
555.53	82.349
555.74	81.336
555.94	77.519
556.15	78.078
556.35	75.752
556.56	77.476
556.76	75.941
556.96	77.304
557.17	76.070
557.37	73.988
557.58	72.070
557.78	72.309
557.98	70.790
558.19	71.191
558.39	69.127
558.59	65.070
558.80	60.930
559.00	58.451
559.21	56.097
559.41	52.925
559.61	49.946
559.82	47.800
560.02	45.165
560.23	41.024
560.43	38.166
560.63	36.254
560.84	35.039
561.04	34.026
561.24	32.949
561.45	31.087
561.65	29.053
561.85	27.449
562.06	23.975
562.26	22.024
562.47	19.332
562.67	17.317
562.87	15.338
563.08	13.245
563.28	12.465
563.48	10.474
563.69	9.364
563.89	8.329
564.09	7.674
564.30	7.310
564.50	6.223
564.70	5.299
564.91	4.921
565.11	4.225
565.31	3.708
565.52	3.416
565.72	3.242
565.92	2.553
566.13	2.266
566.33	2.385
566.53	2.202
566.74	2.227
566.94	1.698
567.14	1.710
567.35	1.589
567.55	1.329
567.75	1.687
567.96	1.503
568.16	1.414
568.36	1.358
568.57	0.990
568.77	1.364
568.97	1.319
569.18	0.961
569.38	0.653
569.58	0.777
569.79	1.049
569.99	0.778
570.19	0.735
570.39	0.960
570.60	1.053
570.80	0.374
571.00	0.705
571.21	0.521
571.41	0.500
571.61	0.370
571.82	0.465
572.02	0.509
572.22	1.075
572.42	0.901
572.63	0.761
572.83	0.782
573.03	0.865
573.24	0.796
573.44	0.541
573.64	1.117
573.84	0.632
574.05	0.413
574.25	0.672
574.45	0.704
574.66	0.613
574.86	0.795
575.06	0.423
575.26	0.541
575.47	0.553
575.67	0.133
575.87	0.483
576.07	0.976
576.28	1.174
576.48	0.745
576.68	1.256
576.88	1.006
577.09	0.923
577.29	0.919
577.49	1.236
577.69	1.157
577.90	0.955
578.10	0.787
578.30	0.876
578.50	1.047
578.71	1.125
578.91	1.131
579.11	0.980
579.31	1.380
579.52	0.998
579.72	1.399
579.92	1.326
580.12	1.562
580.33	1.262
580.53	1.512
580.73	1.334
580.93	1.239
581.13	1.252
581.34	1.092
581.54	1.259
581.74	1.082
581.94	0.900
582.15	1.452
582.35	1.559
582.55	1.451
582.75	1.446
582.95	1.477
583.16	1.505
583.36	1.619
583.56	1.343
583.76	1.623
583.96	1.599
584.17	1.445
584.37	1.336
584.57	1.752
584.77	1.594
584.97	1.377
585.18	1.247
585.38	1.912
585.58	1.279
585.78	1.280
585.98	1.672
586.19	1.404
586.39	1.632
586.59	1.642
586.79	1.533
586.99	2.064
587.20	1.607
587.40	2.250
587.60	1.515
587.80	1.771
588.00	1.892
588.20	1.874
588.41	1.818
588.61	1.765
588.81	1.844
589.01	1.612
589.21	1.670
589.41	1.439
589.62	1.610
589.82	1.611
590.02	1.735
590.22	2.119
590.42	2.468
590.62	2.378
590.83	2.699
591.03	2.849
591.23	3.633
591.43	3.608
591.63	4.317
591.83	4.877
592.03	5.086
592.24	4.871
592.44	5.299
592.64	6.265
592.84	6.818
593.04	7.652
593.24	8.133
593.44	8.908
593.65	10.120
593.85	11.255
594.05	11.459
594.25	12.690
594.45	12.843
594.65	13.491
594.85	14.426
595.06	14.137
595.26	14.058
595.46	14.991
595.66	15.419
595.86	16.259
596.06	17.733
596.26	19.050
596.46	20.408
596.66	22.258
596.87	23.386
597.07	24.217
597.27	24.777
597.47	25.295
597.67	26.182
597.87	26.689
598.07	26.904
598.27	27.814
598.47	28.552
598.67	29.264
598.88	29.437
599.08	29.982
599.28	30.094
599.48	30.664
599.68	31.009
599.88	31.887
600.08	32.995
600.28	33.614
600.48	34.285
600.68	33.890
600.88	34.587
601.09	35.328
601.29	35.984
601.49	37.047
601.69	36.407
601.89	37.396
602.09	37.940
602.29	38.679
602.49	39.060
602.69	39.414
602.89	38.479
603.09	38.026
603.29	37.144
603.49	36.840
603.69	35.528
603.90	35.975
604.10	35.834
604.30	37.182
604.50	37.509
604.70	38.726
604.90	38.953
605.10	40.582
605.30	41.288
605.50	43.332
605.70	43.727
605.90	43.722
606.10	44.418
606.30	43.924
606.50	44.264
606.70	43.549
606.90	43.986
607.10	43.733
607.30	43.685
607.50	44.644
607.70	44.553
607.90	44.852
608.10	43.938
608.30	44.530
608.50	43.255
608.70	42.049
608.90	41.536
609.11	40.504
609.31	40.342
609.51	40.749
609.71	40.961
609.91	41.320
610.11	41.675
610.31	44.017
610.51	46.555
610.71	48.913
610.91	50.720
611.11	52.031
611.31	51.623
611.51	51.602
611.71	51.053
611.91	50.857
612.11	51.643
612.31	51.345
612.51	52.587
612.71	53.169
612.91	53.588
613.11	54.616
613.31	55.370
613.51	57.727
613.71	62.069
613.91	64.776
614.11	66.337
614.31	67.961
614.50	68.191
614.70	70.258
614.90	70.201
615.10	70.113
615.30	69.095
615.50	68.493
615.70	68.224
615.90	67.501
616.10	69.818
616.30	69.202
616.50	70.507
616.70	73.370
616.90	73.925
617.10	76.248
617.30	74.756
617.50	73.417
617.70	73.964
617.90	72.840
618.10	72.826
618.30	72.487
618.50	71.271
618.70	72.940
618.90	73.148
619.10	73.818
619.30	74.818
619.49	75.332
619.69	75.441
619.89	73.973
620.09	71.888
620.29	70.881
620.49	70.731
620.69	72.737
620.89	73.633
621.09	74.056
621.29	73.249
621.49	71.262
621.69	73.179
621.89	72.755
622.09	72.194
622.29	73.081
622.48	73.858
622.68	74.294
622.88	73.010
623.08	71.908
623.28	69.129
623.48	66.991
623.68	66.628
623.88	67.227
624.08	68.570
624.28	69.876
624.48	71.512
624.67	72.592
624.87	73.676
625.07	75.639
625.27	75.878
625.47	73.832
625.67	74.382
625.87	75.618
626.07	75.993
626.27	76.495
626.47	75.806
626.66	73.926
626.86	73.284
627.06	73.099
627.26	73.703
627.46	76.236
627.66	78.987
627.86	80.307
628.06	78.605
628.25	78.492
628.45	77.238
628.65	77.545
628.85	78.805
629.05	77.316
629.25	77.719
629.45	78.768
629.65	79.836
629.84	79.497
630.04	77.911
630.24	77.082
630.44	77.853
630.64	76.777
630.84	76.818
631.04	77.038
631.23	77.220
631.43	75.444
631.63	75.708
631.83	77.089
632.03	78.656
632.23	79.088
632.42	79.332
632.62	80.712
632.82	81.664
633.02	83.526
633.22	83.225
633.42	82.748
633.62	81.466
633.81	79.990
634.01	79.269
634.21	78.506
634.41	77.261
634.61	76.205
634.80	76.279
635.00	76.484
635.20	77.357
635.40	77.732
635.60	78.308
635.80	79.248
635.99	79.954
636.19	82.253
636.39	84.452
636.59	85.793
636.79	85.147
636.98	85.634
637.18	83.616
637.38	82.240
637.58	83.666
637.78	84.319
637.97	83.646
638.17	82.454
638.37	80.820
638.57	80.909
638.77	81.202
638.96	79.906
639.16	80.210
639.36	80.632
639.56	80.167
639.76	80.585
639.95	81.508
640.15	81.294
640.35	80.129
640.55	76.782
640.75	76.368
640.94	76.921
641.14	75.723
641.34	75.493
641.54	76.308
641.73	76.082
641.93	74.502
642.13	73.099
642.33	72.984
642.53	72.208
642.72	72.378
642.92	73.909
643.12	75.345
643.32	77.209
643.51	76.482
643.71	76.033
643.91	75.333
644.11	75.119
644.30	73.831
644.50	70.626
644.70	68.533
644.90	65.359
645.09	63.469
645.29	61.203
645.49	58.880
645.69	56.651
645.88	54.731
646.08	53.105
646.28	51.034
646.48	49.198
646.67	46.682
646.87	45.560
647.07	45.029
647.26	44.496
647.46	42.551
647.66	40.774
647.86	39.972
648.05	38.894
648.25	37.029
648.45	35.389
648.65	34.553
648.84	32.455
649.04	31.296
649.24	30.018
649.43	26.949
649.63	25.782
649.83	23.802
650.03	21.968
650.22	20.543
650.42	20.184
650.62	19.211
650.81	17.741
651.01	16.712
651.21	14.837
651.40	13.183
651.60	12.182
651.80	10.822
652.00	9.730
652.19	8.831
652.39	7.972
652.59	7.186
652.78	6.400
652.98	5.578
653.18	4.876
653.37	4.529
653.57	4.060
653.77	3.566
653.96	3.262
654.16	2.655
654.36	2.470
654.55	2.289
654.75	2.199
654.95	1.774
655.14	1.421
655.34	1.306
655.54	1.218
655.73	1.416
655.93	1.033
656.13	0.886
656.32	0.785
656.52	0.696
656.72	0.763
656.91	0.742
657.11	0.683
657.31	0.673
657.50	0.672
657.70	0.550
657.90	0.571
658.09	0.595
658.29	0.639
658.49	0.534
658.68	0.493
658.88	0.422
659.07	0.570
659.27	0.400
659.47	0.585
659.66	0.379
659.86	0.404
660.06	0.517
660.25	0.270
660.45	0.404
660.64	0.507
660.84	0.419
661.04	0.253
661.23	0.285
661.43	0.421
661.63	0.236
661.82	0.415
662.02	0.263
662.21	0.433
662.41	0.427
662.61	0.148
662.80	0.291
663.00	0.401
663.19	0.553
663.39	0.320
663.59	0.136
663.78	0.413
663.98	0.114
664.17	0.442
664.37	0.313
664.57	0.147
664.76	0.217
664.96	0.348
665.15	0.270
665.35	0.203
665.55	0.198
665.74	0.250
665.94	0.260
666.13	0.121
666.33	0.190
666.53	0.196
666.72	0.395
666.92	0.239
667.11	0.246
667.31	0.164
667.50	0.170
667.70	0.140
667.90	0.108
668.09	0.152
668.29	0.201
668.48	0.383
668.68	0.215
668.87	0.035
669.07	0.205
669.26	0.160
669.46	-0.025
669.66	-0.038
669.85	0.090
670.05	-0.163
670.24	0.264
670.44	0.301
670.63	0.302
670.83	0.131
671.02	0.075
671.22	0.380
671.42	0.193
671.61	0.133
671.81	0.179
672.00	0.185
672.20	0.080
672.39	0.058
672.59	0.184
672.78	0.079
672.98	-0.008
673.17	-0.070
673.37	-0.021
673.56	0.269
673.76	0.033
673.95	-0.042
674.15	-0.050
674.34	0.083
674.54	0.176
674.73	0.155
674.93	0.076
675.13	-0.052
675.32	-0.085
675.52	-0.024
675.71	-0.091
675.91	0.148
676.10	0.061
676.30	0.060
676.49	0.080
676.69	0.076
676.88	-0.020
677.08	-0.062
677.27	0.103
677.47	0.025
677.66	0.078
677.86	0.252
678.05	-0.060
678.24	-0.028
678.44	-0.075
678.63	-0.012
678.83	0.154
679.02	0.192
679.22	0.101
679.41	0.097
679.61	0.046
679.80	0.026
680.00	0.199
680.19	-0.013
680.39	0.034
680.58	0.072
680.78	0.059
680.97	0.055
681.17	0.267
681.36	-0.034
681.56	-0.083
681.75	0.063
681.94	-0.123
682.14	-0.175
682.33	-0.021
682.53	0.033
682.72	0.012
682.92	0.037
683.11	-0.020
683.31	-0.243
683.50	-0.068
683.69	0.153
683.89	0.269
684.08	-0.004
684.28	0.085
684.47	0.008
684.67	-0.008
684.86	0.127
685.06	-0.041
685.25	-0.148
685.44	0.033
685.64	-0.132
685.83	-0.111
686.03	-0.187
686.22	0.189
686.42	-0.159
686.61	0.033
686.80	-0.079
687.00	0.037
687.19	0.141
687.39	-0.050
687.58	0.152
687.77	0.126
687.97	0.076
688.16	-0.008
688.36	-0.020
688.55	-0.108
688.74	0.179
688.94	-0.022
689.13	-0.043
689.33	-0.038
689.52	-0.075
689.71	-0.024
689.91	-0.092
690.10	0.227
690.30	-0.020
690.49	0.016
690.68	0.012
690.88	-0.080
691.07	-0.115
691.27	-0.226
691.46	-0.052
691.65	-0.096
691.85	-0.183
692.04	0.040
692.23	0.062
692.43	-0.295
692.62	0.022
692.82	-0.109
693.01	0.042
693.20	0.083
693.40	-0.020
693.59	-0.012
693.78	-0.024
693.98	-0.175
694.17	0.081
694.36	-0.211
694.56	-0.041
694.75	-0.117
694.94	-0.016
695.14	-0.197
695.33	0.045
695.53	-0.126
695.72	-0.174
695.91	0.175
696.11	0.192
696.30	-0.238
696.49	-0.038
696.69	-0.157
696.88	-0.038
697.07	-0.047
697.27	-0.132
697.46	-0.189
697.65	-0.032
697.85	0.068
698.04	0.000
698.23	0.053
698.43	-0.113
698.62	-0.085
698.81	-0.117
699.01	-0.115
699.20	-0.190
699.39	0.030
699.58	0.132
699.78	-0.125
699.97	-0.142
700.16	-0.127
700.36	-0.129
700.55	-0.109
700.74	-0.087
700.94	0.037
701.13	-0.008
701.32	0.045
701.52	-0.025
701.71	-0.208
701.90	-0.065
702.09	-0.020
702.29	-0.128
702.48	-0.025
702.67	0.033
702.87	-0.122
703.06	-0.276
703.25	-0.074
703.44	-0.004
703.64	-0.250
703.83	-0.173
704.02	0.083
704.22	-0.103
704.41	-0.070
704.60	-0.150
704.79	-0.093
704.99	0.080
705.18	-0.017
705.37	-0.074
705.56	0.124
705.76	0.114
705.95	0.046
706.14	-0.084
706.33	-0.058
706.53	0.159
706.72	0.013
706.91	0.101
707.11	0.251
707.30	-0.038
707.49	0.000
707.68	-0.109
707.88	0.092
708.07	0.056
708.26	0.064
708.45	0.064
708.64	0.050
708.84	-0.025
709.03	0.117
709.22	0.216
709.41	0.012
709.61	-0.059
709.80	0.155
709.99	-0.021
710.18	-0.017
710.38	-0.112
710.57	0.104
710.76	-0.145
710.95	0.026
711.14	-0.126
711.34	0.085
711.53	0.037
711.72	-0.037
711.91	-0.125
712.11	0.209
712.30	0.021
712.49	-0.162
712.68	-0.017
712.87	-0.004
713.07	-0.018
713.26	-0.022
713.45	-0.197
713.64	0.102
713.83	-0.087
714.03	0.017
714.22	-0.318
714.41	-0.104
714.60	-0.194
714.79	0.030
714.99	-0.009
715.18	-0.109
715.37	-0.110
715.56	0.044
715.75	0.076
715.94	0.072
716.14	-0.063
716.33	-0.018
716.52	-0.317
716.71	-0.114
716.90	0.186
717.10	0.068
717.29	0.112
717.48	-0.040
717.67	0.129
717.86	-0.009
718.05	-0.220
718.24	-0.031
718.44	0.058
718.63	-0.159
718.82	0.044
719.01	-0.186
719.20	-0.022
719.39	-0.253
719.59	-0.077
719.78	-0.200
719.97	0.037
720.16	-0.089
720.35	0.070
720.54	-0.135
720.73	-0.215
720.93	0.061
721.12	-0.102
721.31	0.014
721.50	-0.019
721.69	-0.147
721.88	-0.206
722.07	-0.115
722.27	0.028
722.46	-0.298
722.65	0.000
722.84	0.072
723.03	0.072
723.22	0.000
723.41	0.051
723.60	-0.077
723.79	0.113
723.99	-0.148
724.18	-0.028
724.37	-0.169
724.56	-0.161
724.75	-0.024
724.94	-0.033
725.13	0.146
725.32	-0.247
725.51	-0.033
725.71	-0.184
725.90	0.010
726.09	-0.113
726.28	-0.218
726.47	-0.038
726.66	0.034
726.85	-0.039
727.04	-0.064
727.23	-0.050
727.42	-0.030
727.61	-0.195
727.81	0.200
728.00	0.034
728.19	-0.130
728.38	-0.189
728.57	0.110
728.76	-0.125
728.95	0.068
729.14	-0.162
729.33	-0.210
729.52	-0.005
729.71	-0.145
729.90	-0.015
730.09	-0.172
730.28	-0.060
730.48	-0.092
730.67	-0.071
730.86	0.107
731.05	-0.099
731.24	-0.222
731.43	-0.265
731.62	-0.103
731.81	-0.027
732.00	0.038
732.19	0.021
732.38	-0.043
732.57	-0.005
732.76	-0.074
732.95	-0.036
733.14	0.042
733.33	0.062
733.52	0.100
733.71	0.136
733.90	-0.167
734.09	-0.041
734.28	-0.174
734.47	0.052
734.66	-0.104
734.85	-0.208
735.04	-0.037
735.23	0.000
735.42	0.033
735.61	0.175
735.81	-0.045
736.00	-0.046
736.19	-0.195
736.38	0.096
736.57	-0.023
736.76	-0.082
736.95	-0.022
737.14	-0.102
737.33	0.271
737.52	-0.072
737.71	-0.067
737.90	-0.052
738.09	-0.164
738.28	-0.114
738.47	-0.079
738.66	0.063
738.85	-0.215
739.04	0.012
739.22	-0.059
739.41	0.105
739.60	-0.069
739.79	-0.064
739.98	-0.160
740.17	-0.034
740.36	-0.011
740.55	0.078
740.74	0.088
740.93	-0.115
741.12	-0.240
741.31	0.028
741.50	0.126
741.69	-0.109
741.88	0.000
742.07	-0.046
742.26	-0.120
742.45	-0.242
742.64	0.202
742.83	0.320
743.02	-0.059
743.21	-0.208
743.40	0.173
743.59	0.050
743.78	-0.114
743.97	-0.271
744.16	0.020
744.34	-0.020
744.53	-0.074
744.72	0.067
744.91	0.217
745.10	0.142
745.29	-0.045
745.48	0.122
745.67	-0.146
745.86	0.051
746.05	0.203
746.24	0.051
746.43	-0.038
746.62	0.025
746.81	-0.265
747.00	0.007
747.18	-0.234
747.37	-0.199
747.56	0.160
747.75	-0.077
747.94	-0.284
748.13	-0.060
748.32	0.021
748.51	-0.145
748.70	-0.139
748.89	-0.021
749.08	0.117
749.26	0.027
749.45	0.000
749.64	-0.090
749.83	-0.277
750.02	0.101
750.21	-0.210
750.40	0.197
750.59	0.126
750.78	0.000
750.96	0.339
751.15	-0.030
751.34	0.232
751.53	-0.053
751.72	-0.075
751.91	0.230
752.10	-0.311
752.29	0.268
752.47	-0.127
752.66	0.221
752.85	0.077
753.04	-0.198
753.23	0.000
753.42	-0.310
753.61	0.192
753.80	0.200
753.98	0.159
754.17	-0.105
754.36	0.151
754.55	-0.380
754.74	0.224
754.93	0.078
755.12	0.149
755.30	0.000
755.49	0.100
755.68	0.334
755.87	-0.169
756.06	0.063
756.25	0.089
756.43	0.106
756.62	-0.009
756.81	0.147
757.00	0.191
757.19	-0.062
757.38	0.170
757.56	0.242
757.75	0.150
757.94	0.486
758.13	0.309
758.32	0.418
758.51	0.267
758.69	0.267
758.88	0.278
759.07	0.030
759.26	0.041
759.45	-0.052
759.63	0.399
759.82	0.200
760.01	0.139
760.20	0.044
760.39	0.328
760.57	0.376
760.76	0.700
760.95	0.418
761.14	0.146
761.33	-0.160
761.51	0.266
761.70	0.162
761.89	0.458
762.08	0.463
762.27	0.595
762.45	0.726
762.64	0.274
762.83	0.684
763.02	0.012
763.21	0.353
763.39	-0.076
763.58	0.051
763.77	0.626
763.96	0.399
764.14	0.930
764.33	0.221
764.52	0.411
764.71	0.307
764.89	-0.120
765.08	0.808
765.27	0.027
765.46	-0.187
765.65	0.557
765.83	0.338
766.02	0.014
766.21	-0.027
766.40	0.793
766.58	0.466
766.77	0.598
766.96	0.854
767.15	0.447
767.33	0.565
767.52	0.556
767.71	0.671
767.90	0.642
768.08	0.791
768.27	0.529
768.46	-0.113
768.64	0.276
768.83	0.280
769.02	0.864
769.21	0.000
769.39	0.528
769.58	0.188
769.77	0.908
769.96	0.989
770.14	0.256
770.33	0.776
770.52	1.100
770.70	0.512
770.89	1.012
771.08	0.664
771.27	1.496
771.45	0.274
771.64	-0.139
771.83	1.342
772.01	0.875
772.20	1.663
772.39	0.700
772.57	0.526
772.76	1.316
772.95	0.858
773.14	1.002
773.32	0.499
773.51	0.341
773.70	0.642
773.88	1.005
774.07	0.155
774.26	1.272
774.44	0.955
774.63	1.340
774.82	1.074
775.00	1.810
775.19	2.662
775.38	2.334
775.56	1.734
775.75	2.553
775.94	1.438
776.12	2.878
776.31	3.128
776.50	3.693
776.68	3.655
776.87	3.943
777.06	2.661
777.24	2.844
777.43	3.800
777.62	4.207
777.80	3.477
777.99	4.142
778.18	5.090
778.36	4.557
778.55	4.494
778.74	5.346
778.92	4.918
779.11	5.557
779.29	4.164
779.48	5.471
779.67	4.305
779.85	6.004
780.04	6.398
780.23	6.217
780.41	4.996
780.60	6.170
780.79	5.676
780.97	5.369
781.16	5.801
781.34	5.069
781.53	5.772
781.72	6.631
781.90	6.604
782.09	7.125
782.28	7.033
782.46	7.199
782.65	7.286
782.83	7.885
783.02	7.526
783.21	7.829
783.39	9.754
783.58	8.914
783.76	8.633
783.95	8.962
784.14	9.759
784.32	10.288
784.51	9.388
784.69	10.456
784.88	10.994
785.06	10.542
785.25	11.360
785.44	11.885
785.62	12.050
785.81	14.102
785.99	13.025
786.18	13.327
786.37	14.230
786.55	15.861
786.74	16.695
786.92	17.639
787.11	17.871
787.29	19.000
787.48	19.180
787.67	21.793
787.85	21.220
788.04	23.037
788.22	23.126
788.41	23.028
788.59	24.845
788.78	23.850
788.96	24.432
789.15	24.812
789.34	26.772
789.52	27.178
789.71	27.442
789.89	27.844
790.08	28.377
790.26	26.449
790.45	25.759
790.63	25.929
790.82	27.129
791.00	27.794
791.19	28.470
791.38	28.972
791.56	30.002
791.75	30.071
791.93	30.182
792.12	31.041
792.30	31.351
792.49	30.959
792.67	31.897
792.86	30.740
793.04	31.623
793.23	31.434
793.41	32.452
793.60	33.322
793.78	32.856
793.97	32.146
794.15	33.270
794.34	31.549
794.52	31.330
794.71	30.204
794.89	29.475
795.08	27.075
795.26	26.376
795.45	25.744
795.63	25.353
795.82	24.124
796.00	24.529
796.19	22.992
796.37	23.789
796.56	23.798
796.74	24.583
796.93	25.569
797.11	23.694
797.30	23.579
797.48	21.967
797.67	22.281
797.85	22.129
798.04	20.955
798.22	20.048
798.41	19.691
798.59	19.348
798.77	17.872
798.96	17.836
799.14	17.967
799.33	16.977
799.51	17.346
799.70	17.557
799.88	17.315
800.07	15.373
800.25	15.935
800.44	14.696
800.62	15.221
800.80	14.942
800.99	14.983
801.17	13.747
801.36	14.212
801.54	13.857
801.73	12.860
801.91	13.085
802.10	13.460
802.28	13.477
802.46	13.172
802.65	11.961
802.83	12.652
803.02	12.573
803.20	12.411
803.39	12.368
803.57	12.824
803.75	12.967
803.94	12.885
804.12	13.725
804.31	13.164
804.49	14.400
804.67	15.396
804.86	16.075
805.04	16.037
805.23	16.717
805.41	16.524
805.59	16.118
805.78	16.422
805.96	16.550
806.15	16.244
806.33	14.700
806.51	15.980
806.70	16.245
806.88	16.322
807.07	17.148
807.25	17.810
807.43	16.959
807.62	17.658
807.80	17.436
807.99	16.544
808.17	17.030
808.35	15.929
808.54	16.119
808.72	15.936
808.90	15.610
809.09	15.367
809.27	14.825
809.46	15.854
809.64	15.330
809.82	15.837
810.01	16.288
810.19	15.429
810.37	16.378
810.56	14.490
810.74	15.508
810.92	14.615
811.11	14.260
811.29	14.795
811.48	14.474
811.66	14.535
811.84	14.935
812.03	14.625
812.21	15.276
812.39	13.435
812.58	12.658
812.76	12.902
812.94	12.735
813.13	12.285
813.31	13.043
813.49	12.496
813.68	13.733
813.86	11.963
814.04	11.326
814.23	12.265
814.41	10.692
814.59	11.600
814.78	11.806
814.96	10.764
815.14	11.636
815.33	11.927
815.51	10.399
815.69	11.810
815.87	11.031
816.06	11.724
816.24	12.830
816.42	14.133
816.61	13.944
816.79	13.515
816.97	14.449
817.16	15.320
817.34	16.193
817.52	15.304
817.70	16.320
817.89	17.472
818.07	18.241
818.25	18.128
818.44	18.034
818.62	18.542
818.80	17.927
818.98	19.363
819.17	18.938
819.35	20.785
819.53	21.246
819.72	20.924
819.90	23.419
820.08	22.830
820.26	23.605
820.45	23.384
820.63	24.006
820.81	25.730
820.99	26.123
821.18	26.260
821.36	26.844
821.54	26.756
821.73	28.718
821.91	29.362
822.09	28.711
822.27	29.655
822.46	30.109
822.64	31.484
822.82	31.849
823.00	33.715
823.19	35.034
823.37	36.139
823.55	36.994
823.73	39.915
823.91	41.812
824.10	43.071
824.28	44.023
824.46	45.794
824.64	45.344
824.83	46.451
825.01	47.552
825.19	45.285
825.37	49.169
825.56	45.774
825.74	46.301
825.92	44.828
826.10	43.492
826.28	44.340
826.47	43.863
826.65	43.111
826.83	44.192
827.01	43.492
827.19	42.258
827.38	43.977
827.56	44.168
827.74	45.796
827.92	46.831
828.10	47.599
828.29	48.707
828.47	49.818
828.65	47.267
828.83	46.609
829.01	48.372
829.20	49.109
829.38	49.133
829.56	48.798
829.74	46.832
829.92	47.217
830.10	47.574
830.29	47.624
830.47	47.300
830.65	47.176
830.83	46.960
831.01	46.235
831.20	46.692
831.38	42.773
831.56	42.785
831.74	44.645
831.92	44.813
832.10	47.074
832.29	48.919
832.47	45.765
832.65	47.997
832.83	47.010
833.01	45.442
833.19	43.465
833.37	43.116
833.56	44.973
833.74	42.909
833.92	43.623
834.10	42.954
834.28	39.486
834.46	40.050
834.64	40.210
834.83	39.811
835.01	37.168
835.19	41.614
835.37	40.438
835.55	41.628
835.73	40.612
835.91	41.821
836.09	40.433
836.28	41.328
836.46	41.181
836.64	41.143
836.82	41.830
837.00	39.162
837.18	43.547
837.36	42.439
837.54	41.232
837.72	42.570
837.91	43.782
838.09	45.180
838.27	44.009
838.45	45.627
838.63	46.381
838.81	46.053
838.99	45.537
839.17	46.427
839.35	45.168
839.53	46.242
839.72	46.220
839.90	44.459
840.08	45.526
840.26	46.190
840.44	43.356
840.62	43.411
840.80	44.308
840.98	44.467
841.16	42.886
841.34	44.008
841.52	42.674
841.70	40.991
841.89	41.082
842.07	41.049
842.25	38.714
842.43	39.020
842.61	39.494
842.79	40.069
842.97	40.394
843.15	39.250
843.33	39.478
843.51	40.103
843.69	39.736
843.87	39.985
844.05	42.634
844.23	42.486
844.41	42.512
844.59	40.899
844.77	39.442
844.95	38.924
845.13	38.848
845.31	39.672
845.50	38.706
845.68	37.422
845.86	34.899
846.04	35.512
846.22	37.304
846.40	37.472
846.58	36.207
846.76	38.507
846.94	38.005
847.12	35.940
847.30	37.384
847.48	35.445
847.66	34.601
847.84	33.396
848.02	34.781
848.20	34.969
848.38	33.208
848.56	34.316
848.74	31.902
848.92	34.964
849.10	33.987
849.28	35.493
849.46	35.381
849.64	31.794
849.82	35.834
850.00	33.111
850.18	33.140
850.36	33.658
850.54	35.808
850.72	35.820
850.90	36.296
851.08	33.706
851.26	36.798
851.44	35.757
851.62	38.884
851.80	43.224
851.98	39.841
852.16	43.400
852.34	42.462
852.52	42.358
852.70	43.266
852.87	41.447
853.05	44.722
853.23	41.640
853.41	43.493
853.59	42.674
853.77	43.646
853.95	50.500
854.13	47.383
854.31	47.026
854.49	42.640
854.67	44.865
854.85	43.335
855.03	45.369
855.21	45.189
855.39	45.258
855.57	45.655
855.75	47.805
855.93	45.260
856.11	44.449
856.28	51.846
856.46	47.368
856.64	47.052
856.82	46.922
857.00	50.041
857.18	48.509
857.36	46.258
857.54	47.242
857.72	45.963
857.90	44.057
858.08	44.544
858.26	44.754
858.44	43.755
858.61	42.214
858.79	42.103
858.97	41.183
859.15	43.709
859.33	43.980
859.51	42.159
859.69	39.850
859.87	40.192
860.05	40.103
860.23	41.032
860.40	39.727
860.58	38.268
860.76	39.600
860.94	37.969
861.12	37.876
861.30	41.533
861.48	41.344
861.66	41.934
861.84	41.050
862.01	42.718
862.19	43.166
862.37	43.828
862.55	44.291
862.73	44.058
862.91	45.083
863.09	46.579
863.27	46.290
863.44	46.052
863.62	45.781
863.80	45.198
863.98	47.382
864.16	47.523
864.34	53.546
864.52	51.315
864.69	50.000
864.87	52.490
865.05	54.151
865.23	53.397
865.41	58.513
865.59	55.834
865.76	53.900
865.94	52.840
866.12	55.219
866.30	53.540
866.48	56.712
866.66	53.661
866.83	57.425
867.01	57.453
867.19	56.791
867.37	57.312
867.55	54.926
867.73	54.252
867.90	55.494
868.08	55.274
868.26	56.689
868.44	56.693
868.62	59.153
868.79	59.727
868.97	60.876
869.15	64.086
869.33	65.636
869.51	66.036
869.69	64.973
869.86	63.154
870.04	62.715
870.22	63.579
870.40	63.833
870.57	63.160
870.75	61.137
870.93	61.773
871.11	58.978
871.29	57.380
871.46	58.429
871.64	62.320
871.82	57.097
872.00	60.377
872.18	58.796
872.35	56.995
872.53	60.384
872.71	55.847
872.89	57.534
873.06	56.652
873.24	53.480
873.42	55.854
873.60	56.767
873.77	53.928
873.95	56.678
874.13	52.673
874.31	53.146
874.49	52.530
874.66	51.156
874.84	51.789
875.02	51.571
875.20	51.940
875.37	51.144
875.55	50.860
875.73	54.315
875.91	52.789
876.08	52.188
876.26	55.563
876.44	58.111
876.61	55.828
876.79	54.088
876.97	52.050
877.15	52.333
877.32	49.723
877.50	49.008
877.68	49.692
877.86	49.653
878.03	48.565
878.21	49.291
878.39	47.119
878.56	47.111
878.74	46.792
878.92	48.194
879.10	45.590
879.27	45.331
879.45	46.597
879.63	45.224
879.80	47.393
879.98	47.145
880.16	47.204
880.34	47.334
880.51	45.513
880.69	47.010
880.87	43.934
881.04	45.403
881.22	45.335
881.40	42.381
881.57	46.505
881.75	43.777
881.93	46.250
882.10	46.466
882.28	48.676
882.46	46.129
882.63	47.309
882.81	46.368
882.99	46.968
883.16	44.865
883.34	46.231
883.52	47.405
883.69	45.784
883.87	43.924
884.05	46.472
884.22	46.864
884.40	46.867
884.58	46.733
884.75	48.417
884.93	49.439
885.11	49.161
885.28	49.498
885.46	50.550
885.64	50.691
885.81	50.307
885.99	51.342
886.17	49.695
886.34	55.099
886.52	49.222
886.70	52.171
886.87	52.169
887.05	48.924
887.22	48.985
887.40	46.707
887.58	47.191
887.75	47.723
887.93	46.134
888.11	45.509
888.28	44.736
888.46	43.933
888.63	42.546
888.81	45.602
888.99	42.742
889.16	44.378
889.34	45.819
889.51	43.412
889.69	45.417
889.87	46.941
890.04	45.226
890.22	48.125
890.39	47.214
890.57	46.862
890.75	46.543
890.92	47.260
891.10	44.685
891.27	49.090
891.45	47.337
891.63	49.042
891.80	47.320
891.98	45.348
892.15	46.795
892.33	46.597
892.51	46.917
892.68	47.504
892.86	45.953
893.03	44.712
893.21	46.108
893.38	45.665
893.56	44.268
893.74	47.329
893.91	45.969
894.09	45.191
894.26	44.102
894.44	45.701
894.61	43.102
894.79	41.745
894.96	41.423
895.14	39.688
895.32	39.973
895.49	41.303
895.67	41.501
895.84	42.423
896.02	41.292
896.19	42.224
896.37	38.541
896.54	41.728
896.72	42.828
896.89	41.720
897.07	41.332
897.25	42.525
897.42	42.877
897.60	44.215
897.77	42.877
897.95	40.396
898.12	42.368
898.30	41.511
898.47	42.996
898.65	43.814
898.82	42.985
899.00	45.349
899.17	41.974
899.35	42.932
899.52	42.629
899.70	41.604
899.87	41.682
900.05	42.120
900.22	42.547
900.40	41.934
900.57	41.894
900.75	43.683
900.92	45.179
901.10	44.819
901.27	45.412
901.45	45.132
901.62	45.383
901.80	42.698
901.97	45.852
902.15	46.411
902.32	47.018
902.50	49.024
902.67	48.165
902.85	47.962
903.02	50.338
903.20	48.799
903.37	54.776
903.54	52.206
903.72	51.564
903.89	52.374
904.07	52.275
904.24	54.686
904.42	53.339
904.59	53.769
904.77	53.791
904.94	52.637
905.12	53.671
905.29	52.630
905.47	52.050
905.64	53.622
905.81	53.555
905.99	58.799
906.16	59.930
906.34	61.210
906.51	63.224
906.69	64.186
906.86	60.209
907.03	62.929
907.21	65.410
907.38	62.333
907.56	58.503
907.73	57.658
907.91	63.288
908.08	62.192
908.25	61.146
908.43	58.574
908.60	62.349
908.78	61.622
908.95	58.917
909.13	59.178
909.30	58.179
909.47	59.343
909.65	58.104
909.82	56.594
910.00	58.572
910.17	55.333
910.34	56.058
910.52	56.820
910.69	56.680
910.87	56.008
911.04	57.247
911.21	54.366
911.39	55.130
911.56	54.253
911.73	55.221
911.91	57.360
912.08	56.045
912.26	54.472
912.43	57.012
912.60	62.500
912.78	59.294
912.95	60.387
913.13	59.433
913.30	62.732
913.47	64.124
913.65	62.720
913.82	63.133
913.99	61.546
914.17	62.975
914.34	57.203
914.51	58.821
914.69	61.318
914.86	59.186
915.03	60.040
915.21	59.165
915.38	60.060
915.56	63.735
915.73	64.929
915.90	62.222
916.08	64.198
916.25	64.354
916.42	58.420
916.60	61.506
916.77	60.987
916.94	60.457
917.12	57.120
917.29	56.907
917.46	54.582
917.64	54.440
917.81	56.290
917.98	56.439
918.16	54.380
918.33	51.544
918.50	49.573
918.67	49.097
918.85	50.600
919.02	48.055
919.19	47.108
919.37	50.197
919.54	48.276
919.71	46.233
919.89	47.995
920.06	48.689
920.23	43.688
920.41	46.251
920.58	45.434
920.75	45.215
920.92	42.905
921.10	45.000
921.27	41.383
921.44	43.409
921.62	43.901
921.79	36.876
921.96	40.444
922.13	40.376
922.31	39.466
922.48	41.271
922.65	41.514
922.82	37.237
923.00	34.527
923.17	38.491
923.34	37.203
923.52	35.952
923.69	36.190
923.86	36.273
924.03	38.487
924.21	40.180
924.38	36.030
924.55	37.791
924.72	41.678
924.90	39.737
925.07	41.121
925.24	39.675
925.41	43.403
925.59	43.211
925.76	37.776
925.93	43.162
926.10	42.524
926.28	42.479
926.45	41.012
926.62	41.168
926.79	39.610
926.96	40.660
927.14	42.365
927.31	40.235
927.48	44.188
927.65	41.954
927.83	42.483
928.00	41.721
928.17	42.677
928.34	43.961
928.51	46.539
928.69	46.170
928.86	47.739
929.03	40.537
929.20	44.626
929.37	42.919
929.55	43.109
929.72	45.846
929.89	49.294
930.06	45.823
930.23	48.738
930.41	48.094
930.58	48.038
930.75	51.165
930.92	45.937
931.09	52.000
931.27	47.368
931.44	46.379
931.61	46.056
931.78	47.680
931.95	46.499
932.12	46.700
932.30	50.131
932.47	40.644
932.64	46.377
932.81	46.410
932.98	45.755
933.16	44.115
933.33	43.351
933.50	41.606
933.67	41.715
933.84	40.597
934.01	44.503
934.18	42.424
934.36	45.627
934.53	40.846
934.70	42.593
934.87	40.284
935.04	39.546
935.21	36.991
935.38	40.616
935.56	39.980
935.73	41.891
935.90	41.848
936.07	39.796
936.24	40.340
936.41	39.428
936.58	43.879
936.76	38.485
936.93	45.434
937.10	42.316
937.27	39.294
937.44	43.229
937.61	41.419
937.78	40.563
937.95	36.257
938.13	40.484
938.30	42.637
938.47	35.481
938.64	36.629
938.81	39.103
938.98	38.860
939.15	32.889
939.32	38.651
939.49	32.688
939.66	35.141
939.84	42.020
940.01	37.337
940.18	41.162
940.35	35.966
940.52	35.584
940.69	37.832
940.86	31.400
941.03	30.155
941.20	26.432
941.37	33.728
941.54	38.498
941.71	36.667
941.89	36.934
942.06	33.604
942.23	30.284
942.40	32.414
942.57	36.954
942.74	35.371
942.91	38.501
943.08	40.228
943.25	35.183
943.42	40.309
943.59	40.367
943.76	39.541
943.93	39.836
944.10	38.095
944.27	33.512
944.44	36.047
944.61	39.615
944.79	35.352
944.96	42.051
945.13	41.721
945.30	39.024
945.47	31.918
945.64	40.184
945.81	35.319
945.98	37.793
946.15	41.689
946.32	47.427
946.49	45.813
946.66	44.393
946.83	32.830
947.00	40.989
947.17	41.802
947.34	44.541
947.51	43.951
947.68	50.631
947.85	42.643
948.02	43.214
948.19	49.921
948.36	41.794
948.53	55.363
948.70	54.301
948.87	46.634
949.04	44.510
949.21	39.769
949.38	47.619
949.55	50.088
949.72	43.987
949.89	43.906
950.06	45.503
950.23	53.199
950.40	44.444
950.57	60.901
950.74	50.883
950.91	47.059
951.08	52.962
951.25	55.894
951.42	56.900
951.59	60.579
951.76	48.081
951.93	49.460
952.10	43.841
952.27	54.386
952.44	48.980
952.61	47.957
952.77	54.080
952.94	47.764
953.11	45.143
953.28	46.792
953.45	54.675
953.62	47.005
953.79	40.926
953.96	37.500
954.13	48.084
954.30	56.250
954.47	48.142
954.64	54.231
954.81	43.863
954.98	42.541
955.15	52.000
955.32	48.330
955.49	50.098
955.65	57.200
955.82	46.640
955.99	54.011
956.16	54.241
956.33	53.479
956.50	57.198
956.67	50.503
956.84	44.007
957.01	55.397
957.18	49.702
957.35	52.419
957.52	44.578
957.68	56.250
957.85	57.234
958.02	49.373
958.19	60.732
958.36	63.270
958.53	63.802
958.70	52.677
958.87	59.060
959.04	53.846
959.21	61.233
959.37	71.169
959.54	68.506
959.71	60.427
959.88	56.616
960.05	55.582
960.22	61.893
960.39	41.787
960.56	61.623
960.72	54.054
960.89	47.134
961.06	48.542
961.23	47.166
961.40	52.355
961.57	52.778
961.74	50.593
961.90	46.263
962.07	45.359
962.24	47.338
962.41	53.642
962.58	43.803
962.75	45.607
962.92	55.120
963.08	50.112
963.25	58.134
963.42	64.269
963.59	52.966
963.76	58.691
963.93	42.661
964.10	47.674
964.26	48.536
964.43	52.194
964.60	57.176
964.77	58.565
964.94	50.236
965.10	58.264
965.27	43.021
965.44	55.581
965.61	59.511
965.78	52.045
965.95	45.823
966.11	54.608
966.28	48.753
966.45	62.431
966.62	49.279
966.79	51.323
966.95	55.430
967.12	49.775
967.29	53.061
967.46	53.846
967.63	47.872
967.79	54.447
967.96	57.522
968.13	48.538
968.30	44.488
968.47	54.167
968.63	60.554
968.80	49.699
968.97	62.870
969.14	53.267
969.31	54.060
969.47	48.855
969.64	49.900
969.81	45.032
969.98	43.627
970.14	50.325
970.31	51.522
970.48	47.321
970.65	57.882
970.81	56.771
970.98	53.961
971.15	44.864
971.32	44.889
971.48	56.703
971.65	53.369
971.82	49.436
971.99	51.587
972.15	51.544
972.32	52.582
972.49	51.599
972.66	47.991
972.82	48.307
972.99	54.353
973.16	36.325
973.33	51.422
973.49	49.118
973.66	37.037
973.83	58.929
974.00	47.748
974.16	57.727
974.33	58.659
974.50	60.145
974.67	39.259
974.83	66.102
975.00	57.656
975.17	51.724
975.33	56.308
975.50	57.258
975.67	51.382
975.84	55.769
976.00	53.176
976.17	52.941
976.34	58.040
976.50	61.602
976.67	47.018
976.84	52.551
977.00	59.811
977.17	60.282
977.34	63.397
977.50	55.764
977.67	53.653
977.84	61.318
978.01	50.785
978.17	61.209
978.34	54.094
978.51	56.659
978.67	62.156
978.84	51.264
979.01	45.991
979.17	57.263
979.34	60.104
979.51	56.750
979.67	64.563
979.84	62.945
980.01	60.820
980.17	63.506
980.34	64.844
980.51	64.665
980.67	51.688
980.84	54.433
981.01	55.556
981.17	49.804
981.34	48.211
981.50	56.010
981.67	61.538
981.84	49.389
982.00	47.165
982.17	53.690
982.34	55.140
982.50	58.537
982.67	56.331
982.84	61.215
983.00	50.131
983.17	64.450
983.33	54.000
983.50	57.848
983.67	52.423
983.83	53.898
984.00	52.644
984.17	44.850
984.33	45.000
984.50	43.129
984.66	49.485
984.83	42.735
985.00	44.444
985.16	51.899
985.33	40.682
985.49	48.832
985.66	43.736
985.83	40.779
985.99	48.447
986.16	51.468
986.32	52.008
986.49	43.891
986.66	43.964
986.82	46.943
986.99	42.424
987.15	46.729
987.32	52.123
987.49	49.095
987.65	51.282
987.82	43.041
987.98	47.183
988.15	45.547
988.31	38.298
988.48	53.318
988.65	53.968
988.81	56.600
988.98	42.604
989.14	53.318
989.31	52.569
989.47	59.135
989.64	49.550
989.80	50.000
989.97	50.866
990.14	48.511
990.30	48.798
990.47	54.126
990.63	61.949
990.80	58.144
990.96	55.069
991.13	52.232
991.29	51.306
991.46	57.245
991.62	47.674
991.79	53.862
991.95	54.853
992.12	48.980
992.29	49.593
992.45	55.963
992.62	51.794
992.78	56.604
992.95	64.593
993.11	62.864
993.28	62.592
993.44	40.700
993.61	51.037
993.77	59.162
993.94	46.224
994.10	59.283
994.27	52.567
994.43	58.861
994.60	60.000
994.76	57.968
994.93	51.253
995.09	64.690
995.26	72.816
995.42	59.124
995.59	56.992
995.75	61.343
995.92	62.353
996.08	46.588
996.25	60.988
996.41	53.922
996.58	61.416
996.74	54.352
996.91	44.386
997.07	55.366
997.23	47.304
997.40	37.086
997.56	46.495
997.73	49.250
997.89	44.072
998.06	47.357
998.22	41.278
998.39	43.277
998.55	51.270
998.72	46.028
998.88	56.250
999.05	47.775
999.21	45.823
999.37	63.564
999.54	38.636
999.70	42.232
999.87	44.472
1000.03	48.402
1000.20	36.538
1000.36	42.206
1000.52	43.305
1000.69	44.444
1000.85	33.261
1001.02	28.311
1001.18	35.755
1001.35	41.614
1001.51	37.416
1001.67	29.844
1001.84	41.772
1002.00	28.571
1002.17	34.862
1002.33	33.724
1002.50	46.953
1002.66	46.209
1002.82	38.693
1002.99	41.067
1003.15	46.867
1003.32	38.847
1003.48	30.861
1003.64	35.878
1003.81	48.034
1003.97	34.932
1004.14	46.919
1004.30	36.364
1004.46	48.303
1004.63	33.550
1004.79	30.789
1004.95	24.422
1005.12	43.407
1005.28	38.743
1005.45	30.645
1005.61	36.675
1005.77	38.424
1005.94	42.825
1006.10	38.791
1006.26	43.885
1006.43	38.626
1006.59	21.067
1006.76	28.232
1006.92	28.471
1007.08	41.388
1007.25	30.022
1007.41	21.103
1007.57	23.529
1007.74	32.242
1007.90	36.340
1008.06	31.510
1008.23	42.308
1008.39	35.565
1008.55	35.484
1008.72	29.676
1008.88	33.111
1009.04	40.173
1009.21	32.697
1009.37	29.211
1009.53	36.211
1009.70	39.516
1009.86	41.270
1010.02	30.068
1010.19	36.857
1010.35	36.873
1010.51	40.095
1010.68	28.030
1010.84	41.207
1011.00	35.897
1011.17	40.166
1011.33	39.853
1011.49	38.983
1011.66	43.846
1011.82	40.921
1011.98	48.943
1012.14	35.068
1012.31	40.413
1012.47	44.501
1012.63	51.724
1012.80	40.741
1012.96	36.631
1013.12	43.889
1013.29	40.166
1013.45	39.426
1013.61	42.377
1013.77	48.837
1013.94	39.948
1014.10	37.879
1014.26	37.624
1014.43	41.758
1014.59	43.207
1014.75	44.819
1014.91	43.021
1015.08	31.477
1015.24	40.988
1015.40	32.750
1015.56	33.421
1015.73	42.222
1015.89	45.968
1016.05	37.915
1016.21	48.329
1016.38	33.780
1016.54	38.596
1016.70	40.588
1016.86	51.437
1017.03	44.142
1017.19	43.142
1017.35	36.321
1017.51	41.644
1017.68	46.234
1017.84	43.059
1018.00	51.175
1018.16	48.889
1018.33	33.146
1018.49	45.714
1018.65	52.861
1018.81	42.202
1018.97	35.977
1019.14	55.313
1019.30	54.108
1019.46	45.361
1019.62	55.469
1019.79	63.950
1019.95	50.386
1020.11	58.567
1020.27	59.016
1020.43	56.491
1020.60	63.258
1020.76	59.176
1020.92	66.947
1021.08	44.737
1021.24	53.106
1021.41	48.333
1021.57	56.034
1021.73	65.246
1021.89	53.289
1022.05	45.645
1022.21	55.833
1022.38	52.000
1022.54	45.559
1022.70	43.000
1022.86	64.841
1023.02	61.449
1023.19	71.053
1023.35	38.264
1023.51	52.244
1023.67	55.814
1023.83	51.527
1023.99	57.042
1024.16	57.540
1024.32	58.900
1024.48	57.092
1024.64	48.344
1024.80	35.816
1024.96	59.259
1025.12	51.724
1025.29	33.216
1025.45	57.143
1025.61	47.419
1025.77	50.181
1025.93	61.801
1026.09	50.579
1026.26	58.784
1026.42	43.443
1026.58	44.637
1026.74	58.431
1026.90	46.828
1027.06	51.815
1027.22	51.007
1027.38	41.489
1027.55	70.388
1027.71	59.884
1027.87	53.220
1028.03	54.980
1028.19	35.254
1028.35	47.601
1028.51	43.506
1028.67	47.909
1028.83	41.558
1029.00	41.034
1029.16	50.000
1029.32	36.842
1029.48	42.578
1029.64	45.246
1029.80	55.285
1029.96	56.085
1030.12	40.293
1030.28	39.649
1030.44	51.984
1030.61	47.257
1030.77	50.000
1030.93	43.254
1031.09	33.725
1031.25	56.345
1031.41	60.643
1031.57	51.899
1031.73	19.583
1031.89	59.011
1032.05	67.041
1032.21	35.102
1032.37	31.295
1032.53	42.322
1032.69	40.343
1032.86	44.231
1033.02	37.209
1033.18	40.000
1033.34	35.125
1033.50	41.451
1033.66	58.491
1033.82	41.392
1033.98	43.103
1034.14	46.544
1034.30	66.412
1034.46	40.602
1034.62	41.569
1034.78	35.662
1034.94	32.130
1035.10	40.777
1035.26	44.674
1035.42	44.371
1035.58	43.321
1035.74	60.581
1035.90	50.732
1036.06	34.082
1036.22	43.511
1036.38	53.744
1036.54	52.049
1036.70	54.167
1036.86	38.144
1037.02	51.648
1037.18	50.000
1037.34	48.810
1037.50	55.825
1037.66	46.842
1037.82	44.097
1037.98	62.724
1038.14	56.354
1038.30	40.769
1038.46	58.993
1038.62	38.498
1038.78	72.115
1038.94	54.187
1039.10	74.641
1039.26	61.638
1039.42	57.798
1039.58	51.479
1039.74	50.209
1039.90	52.000
1040.06	51.220
>>>>>End Processed Spectral Data<<<<<
