SpectraSuite Data File
++++++++++++++++++++++++++++++++++++
Date: Wed Jan 25 18:53:51 EET 2017
User: TheoProf
Dark Spectrum Present: Yes
Reference Spectrum Present: Yes
Number of Sampled Component Spectra: 1
Spectrometers: USB4C02475
Integration Time (usec): 64136 (USB4C02475)
Spectra Averaged: 1 (USB4C02475)
Boxcar Smoothing: 0 (USB4C02475)
Correct for Electrical Dark: No (USB4C02475)
Strobe/Lamp Enabled: No (USB4C02475)
Correct for Detector Non-linearity: No (USB4C02475)
Correct for Stray Light: No (USB4C02475)
Number of Pixels in Processed Spectrum: 3648
>>>>>Begin Processed Spectral Data<<<<<
344.91	-25.000
345.13	-25.000
345.35	-25.000
345.57	321.429
345.79	550.000
346.00	63.158
346.22	-775.000
346.44	6.897
346.66	60.000
346.87	155.172
347.09	20.000
347.31	121.739
347.53	-58.824
347.74	97.368
347.96	-7.143
348.18	300.000
348.40	110.526
348.61	246.154
348.83	72.727
349.05	1.639
349.27	-79.167
349.48	-129.412
349.70	429.412
349.92	145.161
350.14	47.541
350.35	37.037
350.57	35.417
350.79	58.824
351.01	61.538
351.22	180.000
351.44	19.231
351.66	-70.000
351.87	-11.111
352.09	-525.000
352.31	-91.429
352.53	28.333
352.74	120.690
352.96	2.000
353.18	4.878
353.40	-1300.000
353.61	-33.333
353.83	354.545
354.05	-30.000
354.26	33.333
354.48	4.762
354.70	10.526
354.92	-92.308
355.13	31.034
355.35	-43.396
355.57	1.961
355.78	29.032
356.00	64.583
356.22	149.315
356.44	-29.688
356.65	50.000
356.87	38.462
357.09	6.000
357.30	-9.184
357.52	300.000
357.74	0.000
357.95	250.000
358.17	56.818
358.39	-2.326
358.60	65.625
358.82	23.077
359.04	360.000
359.26	52.941
359.47	-66.667
359.69	24.752
359.91	-145.000
360.12	-560.000
360.34	89.189
360.56	225.000
360.77	82.051
360.99	18.966
361.21	69.643
361.42	2.128
361.64	-162.500
361.86	-200.000
362.07	39.024
362.29	-40.909
362.51	55.952
362.72	292.308
362.94	83.077
363.16	56.818
363.37	37.500
363.59	-52.000
363.81	6.250
364.02	75.510
364.24	-430.769
364.46	55.769
364.67	425.000
364.89	18.182
365.11	-1.852
365.32	21.429
365.54	-94.737
365.76	12.644
365.97	-36.364
366.19	218.182
366.41	-21.429
366.62	97.143
366.84	285.714
367.05	-20.000
367.27	78.788
367.49	83.871
367.70	28.571
367.92	52.632
368.14	-21.429
368.35	-67.647
368.57	2.532
368.79	45.283
369.00	28.571
369.22	120.000
369.43	45.313
369.65	-37.500
369.87	102.857
370.08	-116.667
370.30	-320.000
370.51	40.000
370.73	7.576
370.95	-57.692
371.16	-12.963
371.38	50.000
371.60	266.667
371.81	-23.684
372.03	59.420
372.24	-0.000
372.46	-82.759
372.68	-95.833
372.89	57.895
373.11	-37.288
373.32	51.852
373.54	-52.632
373.76	-4.082
373.97	35.135
374.19	-30.769
374.40	-60.345
374.62	-78.125
374.84	56.000
375.05	25.926
375.27	22.000
375.48	-94.118
375.70	72.414
375.92	26.923
376.13	-40.000
376.35	20.635
376.56	-471.429
376.78	-38.636
376.99	-15.385
377.21	-62.791
377.43	76.923
377.64	-16.883
377.86	114.286
378.07	-40.000
378.29	-27.273
378.51	2.469
378.72	13.699
378.94	0.000
379.15	89.474
379.37	36.000
379.58	-156.250
379.80	-8.333
380.01	-44.737
380.23	-22.222
380.45	-15.789
380.66	-18.841
380.88	113.636
381.09	-37.500
381.31	12.500
381.52	34.783
381.74	77.895
381.95	-400.000
382.17	31.818
382.39	-34.483
382.60	-38.095
382.82	-40.000
383.03	-93.750
383.25	-46.250
383.46	-115.789
383.68	29.545
383.89	34.286
384.11	45.763
384.32	41.860
384.54	46.465
384.76	-13.043
384.97	-3.922
385.19	-4.167
385.40	-3.226
385.62	-1.724
385.83	14.286
386.05	10.000
386.26	-33.333
386.48	11.475
386.69	28.395
386.91	0.000
387.12	-38.462
387.34	-63.462
387.55	0.000
387.77	-19.178
387.98	43.137
388.20	-14.474
388.41	-2.857
388.63	32.000
388.84	-7.353
389.06	15.152
389.27	40.594
389.49	13.846
389.70	56.863
389.92	-46.429
390.13	38.776
390.35	29.412
390.56	31.373
390.78	13.636
390.99	32.394
391.21	19.118
391.42	30.864
391.64	-45.000
391.85	50.000
392.07	-262.500
392.28	-88.525
392.50	7.778
392.71	3.226
392.93	22.414
393.14	33.962
393.36	-15.094
393.57	0.000
393.79	-4400.000
394.00	-19.608
394.22	0.000
394.43	-15.054
394.65	12.903
394.86	14.423
395.08	21.519
395.29	17.647
395.50	17.073
395.72	-70.968
395.93	15.038
396.15	54.839
396.36	12.644
396.58	11.304
396.79	-9.459
397.01	20.312
397.22	41.791
397.44	-8.403
397.65	14.167
397.87	16.216
398.08	7.692
398.29	-10.294
398.51	66.667
398.72	32.576
398.94	16.667
399.15	4.950
399.37	8.209
399.58	39.362
399.80	28.431
400.01	30.952
400.22	9.259
400.44	13.333
400.65	7.353
400.87	8.621
401.08	-25.000
401.30	15.278
401.51	-6.452
401.72	32.903
401.94	22.414
402.15	-20.690
402.37	-6.604
402.58	-33.333
402.80	-4.110
403.01	-50.617
403.22	32.632
403.44	18.939
403.65	49.265
403.87	13.571
404.08	13.462
404.30	-0.769
404.51	27.119
404.72	33.333
404.94	-0.763
405.15	2.703
405.37	24.409
405.58	-37.143
405.79	-38.947
406.01	24.837
406.22	17.600
406.44	17.021
406.65	1.875
406.86	19.205
407.08	7.407
407.29	-3.947
407.51	25.000
407.72	20.139
407.93	-1.974
408.15	31.902
408.36	29.927
408.58	28.649
408.79	-4.930
409.00	25.161
409.22	29.508
409.43	39.716
409.64	0.000
409.86	7.407
410.07	-6.962
410.29	14.953
410.50	-1.695
410.71	-15.686
410.93	22.460
411.14	5.521
411.35	20.915
411.57	-1.807
411.78	1.775
412.00	29.371
412.21	-0.685
412.42	37.725
412.64	10.606
412.85	45.029
413.06	6.881
413.28	5.333
413.49	37.681
413.70	49.153
413.92	42.759
414.13	17.857
414.34	23.037
414.56	36.810
414.77	40.000
414.98	28.272
415.20	25.434
415.41	29.444
415.63	27.193
415.84	21.569
416.05	49.565
416.27	30.455
416.48	39.754
416.69	33.784
416.91	41.063
417.12	29.687
417.33	45.992
417.55	29.651
417.76	14.368
417.97	30.244
418.19	41.667
418.40	36.264
418.61	28.151
418.83	27.602
419.04	43.694
419.25	36.066
419.46	25.328
419.68	43.333
419.89	19.786
420.10	41.004
420.32	43.426
420.53	34.137
420.74	40.769
420.96	43.426
421.17	33.992
421.38	28.736
421.60	25.417
421.81	30.000
422.02	44.061
422.23	26.971
422.45	21.481
422.66	42.500
422.87	30.153
423.09	12.775
423.30	40.278
423.51	32.472
423.73	45.887
423.94	42.215
424.15	44.788
424.36	48.125
424.58	46.713
424.79	30.363
425.00	32.394
425.22	34.333
425.43	36.594
425.64	31.818
425.85	21.862
426.07	33.438
426.28	43.151
426.49	17.712
426.71	27.485
426.92	22.781
427.13	35.974
427.34	21.515
427.56	44.940
427.77	36.328
427.98	37.500
428.19	36.680
428.41	42.662
428.62	27.055
428.83	45.404
429.04	31.056
429.26	41.888
429.47	50.769
429.68	42.154
429.89	55.357
430.11	54.427
430.32	54.617
430.53	40.238
430.74	55.590
430.96	55.497
431.17	63.818
431.38	55.161
431.59	46.483
431.81	37.903
432.02	46.910
432.23	55.909
432.44	59.231
432.66	55.866
432.87	49.544
433.08	45.602
433.29	59.391
433.51	55.882
433.72	56.909
433.93	50.583
434.14	50.704
434.35	46.973
434.57	51.153
434.78	57.831
434.99	56.897
435.20	57.087
435.42	67.008
435.63	73.432
435.84	62.158
436.05	68.783
436.26	59.073
436.48	60.748
436.69	55.319
436.90	47.793
437.11	55.493
437.32	62.004
437.54	59.044
437.75	59.642
437.96	53.094
438.17	60.382
438.38	79.116
438.60	54.664
438.81	60.442
439.02	59.289
439.23	62.037
439.44	61.523
439.66	37.321
439.87	63.760
440.08	63.017
440.29	52.132
440.50	58.835
440.72	45.981
440.93	45.455
441.14	48.757
441.35	57.752
441.56	51.337
441.77	59.606
441.99	53.400
442.20	53.047
442.41	52.952
442.62	55.000
442.83	54.730
443.04	48.118
443.26	62.201
443.47	53.233
443.68	60.101
443.89	61.510
444.10	61.828
444.31	51.724
444.53	50.417
444.74	55.538
444.95	48.644
445.16	43.792
445.37	41.909
445.58	40.323
445.80	52.827
446.01	48.950
446.22	50.940
446.43	46.012
446.64	37.672
446.85	43.817
447.06	47.653
447.28	46.491
447.49	57.075
447.70	56.116
447.91	52.941
448.12	53.867
448.33	49.793
448.54	55.487
448.76	45.235
448.97	50.353
449.18	58.643
449.39	54.977
449.60	50.000
449.81	51.190
450.02	48.378
450.23	51.042
450.45	47.632
450.66	46.918
450.87	49.294
451.08	50.619
451.29	48.401
451.50	41.634
451.71	42.092
451.92	41.789
452.13	41.915
452.35	40.488
452.56	37.328
452.77	46.581
452.98	41.918
453.19	42.656
453.40	43.307
453.61	36.107
453.82	37.953
454.03	34.601
454.25	31.355
454.46	22.830
454.67	26.794
454.88	23.299
455.09	19.663
455.30	15.796
455.51	19.612
455.72	14.824
455.93	14.416
456.14	13.038
456.35	9.295
456.56	9.777
456.78	10.926
456.99	8.831
457.20	6.202
457.41	12.148
457.62	5.946
457.83	1.429
458.04	7.516
458.25	4.456
458.46	3.625
458.67	3.116
458.88	2.343
459.09	3.546
459.30	-2.333
459.51	-1.697
459.73	6.277
459.94	4.873
460.15	5.521
460.36	5.985
460.57	3.510
460.78	0.091
460.99	3.843
461.20	0.512
461.41	2.818
461.62	1.823
461.83	2.865
462.04	0.343
462.25	0.618
462.46	4.636
462.67	-0.341
462.88	6.153
463.09	0.890
463.30	1.345
463.51	2.588
463.72	2.470
463.93	3.908
464.15	-1.736
464.36	1.339
464.57	1.606
464.78	3.818
464.99	2.994
465.20	3.250
465.41	1.736
465.62	2.007
465.83	2.289
466.04	0.787
466.25	1.239
466.46	1.955
466.67	1.036
466.88	-0.146
467.09	1.645
467.30	1.090
467.51	3.960
467.72	-0.626
467.93	1.915
468.14	2.198
468.35	3.844
468.56	2.987
468.77	1.235
468.98	1.857
469.19	2.019
469.40	2.141
469.61	2.082
469.82	4.975
470.03	-1.227
470.24	-1.754
470.45	1.376
470.66	1.606
470.87	4.453
471.08	0.542
471.29	0.948
471.50	0.168
471.71	2.102
471.92	1.828
472.13	1.886
472.34	0.856
472.55	1.985
472.76	3.158
472.97	-0.054
473.18	1.736
473.39	0.661
473.60	1.004
473.81	0.289
474.01	-0.395
474.22	1.771
474.43	0.592
474.64	0.396
474.85	2.272
475.06	0.421
475.27	2.064
475.48	1.435
475.69	1.668
475.90	1.911
476.11	3.004
476.32	1.806
476.53	1.034
476.74	1.617
476.95	0.931
477.16	1.709
477.37	1.775
477.58	1.938
477.79	0.300
478.00	0.504
478.21	2.119
478.41	3.005
478.62	1.220
478.83	2.523
479.04	-0.527
479.25	2.253
479.46	0.158
479.67	1.570
479.88	3.370
480.09	-0.464
480.30	1.233
480.51	1.217
480.72	0.072
480.93	1.994
481.14	0.271
481.34	2.557
481.55	1.794
481.76	1.259
481.97	1.108
482.18	0.662
482.39	2.590
482.60	1.209
482.81	0.236
483.02	1.904
483.23	1.283
483.44	2.779
483.65	1.263
483.85	2.758
484.06	2.166
484.27	2.418
484.48	2.751
484.69	2.873
484.90	3.487
485.11	3.790
485.32	2.875
485.53	2.359
485.73	3.576
485.94	2.397
486.15	2.795
486.36	3.701
486.57	3.172
486.78	3.097
486.99	2.516
487.20	1.821
487.41	2.172
487.61	2.338
487.82	4.440
488.03	3.351
488.24	3.359
488.45	3.445
488.66	2.720
488.87	2.546
489.08	2.868
489.28	3.394
489.49	2.693
489.70	3.381
489.91	1.898
490.12	3.864
490.33	3.205
490.54	3.493
490.74	3.285
490.95	2.538
491.16	2.674
491.37	2.936
491.58	2.419
491.79	3.199
492.00	3.115
492.20	3.007
492.41	2.911
492.62	2.953
492.83	4.105
493.04	4.190
493.25	2.786
493.45	3.837
493.66	5.039
493.87	4.993
494.08	4.641
494.29	5.365
494.50	4.586
494.70	5.815
494.91	5.915
495.12	5.644
495.33	6.835
495.54	7.407
495.75	7.918
495.95	8.211
496.16	9.377
496.37	10.425
496.58	11.333
496.79	11.829
496.99	13.425
497.20	14.010
497.41	15.315
497.62	16.332
497.83	16.398
498.04	16.085
498.24	17.974
498.45	19.619
498.66	20.226
498.87	20.889
499.08	21.190
499.28	22.342
499.49	22.943
499.70	24.702
499.91	25.034
500.12	25.291
500.32	27.123
500.53	28.756
500.74	29.823
500.95	31.881
501.15	31.926
501.36	33.188
501.57	32.892
501.78	33.760
501.99	35.418
502.19	36.240
502.40	37.385
502.61	36.877
502.82	38.841
503.02	37.828
503.23	37.994
503.44	37.456
503.65	37.574
503.86	37.182
504.06	39.084
504.27	39.034
504.48	38.613
504.69	40.381
504.89	41.568
505.10	42.194
505.31	42.562
505.52	44.059
505.72	43.884
505.93	44.974
506.14	43.778
506.35	42.216
506.55	40.442
506.76	39.061
506.97	39.622
507.18	40.313
507.38	41.969
507.59	42.205
507.80	43.790
508.01	42.721
508.21	41.581
508.42	43.310
508.63	43.489
508.84	43.919
509.04	45.968
509.25	46.633
509.46	46.186
509.67	44.582
509.87	46.692
510.08	46.140
510.29	46.953
510.49	47.349
510.70	45.945
510.91	43.582
511.12	44.436
511.32	43.395
511.53	43.442
511.74	41.942
511.94	41.325
512.15	41.214
512.36	41.225
512.57	39.382
512.77	39.882
512.98	40.580
513.19	39.734
513.39	41.244
513.60	40.126
513.81	41.201
514.01	43.317
514.22	41.833
514.43	43.864
514.64	45.065
514.84	46.925
515.05	48.444
515.26	49.382
515.46	49.609
515.67	50.539
515.88	50.218
516.08	52.299
516.29	54.527
516.50	60.120
516.70	61.731
516.91	64.758
517.12	64.416
517.32	66.244
517.53	67.748
517.74	68.838
517.95	66.986
518.15	66.862
518.36	69.435
518.57	67.800
518.77	69.204
518.98	69.677
519.19	72.303
519.39	73.091
519.60	74.996
519.80	74.571
520.01	74.034
520.22	73.230
520.42	74.172
520.63	75.085
520.84	74.446
521.04	71.472
521.25	70.537
521.46	65.527
521.66	66.177
521.87	68.774
522.08	70.330
522.28	71.536
522.49	68.150
522.70	69.331
522.90	70.085
523.11	71.747
523.31	73.804
523.52	74.371
523.73	74.716
523.93	73.485
524.14	72.083
524.35	71.873
524.55	73.102
524.76	72.403
524.97	73.722
525.17	73.783
525.38	73.162
525.58	73.170
525.79	73.932
526.00	74.563
526.20	77.932
526.41	78.420
526.61	77.362
526.82	76.830
527.03	78.886
527.23	77.975
527.44	75.045
527.64	74.036
527.85	76.716
528.06	77.652
528.26	77.363
528.47	76.303
528.68	76.475
528.88	77.377
529.09	76.908
529.29	79.057
529.50	80.835
529.70	80.930
529.91	78.277
530.12	78.459
530.32	78.591
530.53	78.263
530.73	81.292
530.94	82.522
531.15	83.981
531.35	86.234
531.56	83.091
531.76	82.504
531.97	83.087
532.17	80.747
532.38	79.937
532.59	78.666
532.79	79.805
533.00	80.023
533.20	78.571
533.41	78.527
533.61	78.992
533.82	79.890
534.03	81.335
534.23	79.827
534.44	84.270
534.64	84.840
534.85	84.281
535.05	83.792
535.26	85.880
535.46	80.391
535.67	79.991
535.88	80.820
536.08	77.865
536.29	75.760
536.49	74.541
536.70	75.404
536.90	76.549
537.11	78.047
537.31	79.951
537.52	80.065
537.72	80.696
537.93	80.047
538.13	81.357
538.34	85.317
538.55	84.698
538.75	84.382
538.96	82.202
539.16	80.853
539.37	78.095
539.57	78.680
539.78	79.347
539.98	79.703
540.19	82.820
540.39	81.625
540.60	84.446
540.80	84.253
541.01	84.458
541.21	83.117
541.42	81.632
541.62	79.630
541.83	80.484
542.03	77.397
542.24	76.800
542.44	73.902
542.65	74.450
542.85	74.088
543.06	71.688
543.26	74.281
543.47	73.477
543.67	75.278
543.88	75.399
544.08	75.335
544.29	73.314
544.49	72.613
544.70	73.335
544.90	76.279
545.11	76.981
545.31	79.996
545.52	79.466
545.72	76.426
545.93	73.841
546.13	71.757
546.34	70.536
546.54	70.527
546.75	73.365
546.95	75.379
547.15	76.507
547.36	73.320
547.56	72.040
547.77	70.887
547.97	68.982
548.18	66.633
548.38	64.682
548.59	61.552
548.79	60.317
549.00	58.341
549.20	57.803
549.41	56.246
549.61	53.454
549.81	49.483
550.02	44.785
550.22	41.993
550.43	38.974
550.63	38.314
550.84	36.383
551.04	34.277
551.25	33.421
551.45	31.656
551.65	28.781
551.86	27.318
552.06	24.825
552.27	23.169
552.47	21.834
552.68	20.514
552.88	19.064
553.08	17.519
553.29	16.025
553.49	14.502
553.70	12.969
553.90	11.879
554.11	10.837
554.31	10.209
554.51	8.734
554.72	7.247
554.92	6.772
555.13	6.333
555.33	5.693
555.53	5.020
555.74	3.914
555.94	3.820
556.15	3.026
556.35	2.784
556.56	2.526
556.76	2.453
556.96	2.268
557.17	2.243
557.37	2.073
557.58	1.569
557.78	1.647
557.98	1.622
558.19	1.417
558.39	1.168
558.59	1.429
558.80	1.361
559.00	1.333
559.21	0.935
559.41	0.965
559.61	0.998
559.82	1.126
560.02	0.960
560.23	0.707
560.43	0.357
560.63	0.305
560.84	0.853
561.04	0.855
561.24	0.679
561.45	0.799
561.65	0.969
561.85	0.784
562.06	0.427
562.26	1.087
562.47	0.499
562.67	0.573
562.87	0.793
563.08	0.254
563.28	0.463
563.48	0.514
563.69	0.531
563.89	0.383
564.09	0.559
564.30	0.760
564.50	0.625
564.70	0.689
564.91	0.353
565.11	0.464
565.31	0.536
565.52	0.646
565.72	0.253
565.92	0.310
566.13	0.500
566.33	0.340
566.53	0.486
566.74	0.785
566.94	0.228
567.14	0.327
567.35	0.228
567.55	0.336
567.75	0.491
567.96	0.399
568.16	0.791
568.36	0.724
568.57	0.487
568.77	0.841
568.97	0.735
569.18	0.679
569.38	0.753
569.58	0.593
569.79	0.162
569.99	0.458
570.19	0.306
570.39	0.846
570.60	0.652
570.80	0.269
571.00	0.697
571.21	0.134
571.41	0.507
571.61	0.385
571.82	0.305
572.02	0.609
572.22	1.020
572.42	0.608
572.63	0.571
572.83	0.494
573.03	0.613
573.24	0.628
573.44	0.636
573.64	0.949
573.84	0.407
574.05	0.486
574.25	0.867
574.45	0.544
574.66	0.643
574.86	0.692
575.06	0.332
575.26	0.773
575.47	0.636
575.67	0.541
575.87	0.922
576.07	0.760
576.28	0.957
576.48	0.973
576.68	1.144
576.88	0.803
577.09	1.202
577.29	0.995
577.49	1.335
577.69	1.263
577.90	0.894
578.10	1.237
578.30	1.079
578.50	1.275
578.71	1.577
578.91	1.931
579.11	2.196
579.31	2.265
579.52	2.089
579.72	3.228
579.92	3.102
580.12	3.368
580.33	3.584
580.53	4.168
580.73	4.197
580.93	4.621
581.13	5.102
581.34	5.651
581.54	6.533
581.74	7.359
581.94	7.470
582.15	8.291
582.35	8.443
582.55	9.340
582.75	9.765
582.95	10.357
583.16	10.888
583.36	12.082
583.56	12.509
583.76	12.828
583.96	14.061
584.17	14.706
584.37	15.305
584.57	15.969
584.77	16.519
584.97	17.217
585.18	17.260
585.38	17.256
585.58	17.430
585.78	18.899
585.98	20.280
586.19	21.427
586.39	22.529
586.59	23.616
586.79	24.068
586.99	24.840
587.20	23.685
587.40	24.502
587.60	24.808
587.80	25.188
588.00	25.686
588.20	26.524
588.41	27.915
588.61	28.494
588.81	28.408
589.01	28.518
589.21	29.015
589.41	29.103
589.62	29.317
589.82	29.628
590.02	29.307
590.22	30.152
590.42	29.990
590.62	31.499
590.83	31.630
591.03	32.243
591.23	33.336
591.43	33.944
591.63	34.251
591.83	35.242
592.03	33.985
592.24	35.026
592.44	33.989
592.64	33.433
592.84	34.309
593.04	34.294
593.24	35.094
593.44	35.234
593.65	36.680
593.85	37.507
594.05	37.874
594.25	38.372
594.45	39.058
594.65	37.604
594.85	36.837
595.06	35.205
595.26	34.274
595.46	33.166
595.66	33.119
595.86	34.994
596.06	36.123
596.26	37.569
596.46	38.770
596.66	39.587
596.87	41.137
597.07	40.917
597.27	41.678
597.47	41.106
597.67	40.770
597.87	40.433
598.07	40.256
598.27	40.730
598.47	40.069
598.67	40.969
598.88	41.224
599.08	40.277
599.28	40.035
599.48	39.844
599.68	40.606
599.88	40.190
600.08	40.766
600.28	41.331
600.48	41.429
600.68	41.482
600.88	41.787
601.09	41.197
601.29	41.992
601.49	43.152
601.69	42.444
601.89	42.732
602.09	42.936
602.29	44.240
602.49	43.262
602.69	43.935
602.89	42.752
603.09	42.852
603.29	41.063
603.49	41.101
603.69	40.557
603.90	41.202
604.10	40.702
604.30	42.214
604.50	44.332
604.70	46.178
604.90	46.374
605.10	48.695
605.30	50.516
605.50	52.967
605.70	54.612
605.90	55.612
606.10	57.252
606.30	57.246
606.50	57.958
606.70	59.752
606.90	60.121
607.10	60.930
607.30	61.442
607.50	63.411
607.70	64.121
607.90	64.638
608.10	65.075
608.30	64.937
608.50	63.162
608.70	60.975
608.90	60.362
609.11	59.461
609.31	58.774
609.51	59.772
609.71	59.079
609.91	59.778
610.11	60.697
610.31	63.077
610.51	65.051
610.71	68.073
610.91	69.021
611.11	69.830
611.31	67.745
611.51	66.393
611.71	65.233
611.91	64.720
612.11	64.711
612.31	64.267
612.51	64.013
612.71	64.425
612.91	63.570
613.11	62.759
613.31	63.670
613.51	65.192
613.71	66.564
613.91	69.541
614.11	69.801
614.31	69.687
614.50	69.761
614.70	71.497
614.90	69.767
615.10	69.306
615.30	66.862
615.50	66.793
615.70	65.316
615.90	64.267
616.10	65.094
616.30	65.271
616.50	66.271
616.70	67.774
616.90	68.646
617.10	69.271
617.30	68.220
617.50	67.320
617.70	68.030
617.90	65.933
618.10	65.295
618.30	65.592
618.50	65.141
618.70	66.424
618.90	66.816
619.10	66.564
619.30	69.187
619.49	69.056
619.69	69.326
619.89	68.048
620.09	66.397
620.29	65.741
620.49	66.909
620.69	68.507
620.89	69.106
621.09	68.586
621.29	68.787
621.49	67.372
621.69	68.310
621.89	67.778
622.09	68.120
622.29	68.380
622.48	69.534
622.68	70.061
622.88	69.455
623.08	68.412
623.28	65.811
623.48	63.884
623.68	63.833
623.88	63.137
624.08	65.014
624.28	67.042
624.48	68.562
624.67	69.551
624.87	71.652
625.07	73.420
625.27	73.350
625.47	72.289
625.67	73.089
625.87	74.728
626.07	74.263
626.27	75.140
626.47	74.692
626.66	73.018
626.86	72.131
627.06	72.158
627.26	73.606
627.46	76.654
627.66	78.441
627.86	79.479
628.06	77.850
628.25	77.493
628.45	74.998
628.65	75.502
628.85	76.497
629.05	75.894
629.25	75.677
629.45	75.732
629.65	75.796
629.84	75.463
630.04	73.425
630.24	72.175
630.44	70.559
630.64	68.699
630.84	67.581
631.04	67.270
631.23	66.170
631.43	64.131
631.63	64.321
631.83	63.664
632.03	63.659
632.23	61.639
632.42	61.271
632.62	61.566
632.82	60.804
633.02	60.873
633.22	59.631
633.42	57.546
633.62	55.756
633.81	53.269
634.01	51.960
634.21	50.326
634.41	47.849
634.61	46.551
634.80	45.088
635.00	43.899
635.20	44.113
635.40	42.461
635.60	41.577
635.80	41.399
635.99	40.735
636.19	39.516
636.39	38.872
636.59	38.450
636.79	36.889
636.98	35.776
637.18	33.530
637.38	31.674
637.58	30.862
637.78	29.934
637.97	27.479
638.17	25.721
638.37	23.840
638.57	22.151
638.77	20.807
638.96	19.457
639.16	17.903
639.36	17.320
639.56	16.182
639.76	14.894
639.95	13.639
640.15	12.294
640.35	11.457
640.55	10.064
640.75	9.488
640.94	8.736
641.14	7.705
641.34	6.766
641.54	6.260
641.73	5.397
641.93	4.724
642.13	4.140
642.33	3.884
642.53	2.884
642.72	2.755
642.92	2.685
643.12	2.482
643.32	2.230
643.51	1.596
643.71	1.305
643.91	1.516
644.11	1.282
644.30	1.136
644.50	0.994
644.70	0.737
644.90	0.793
645.09	0.743
645.29	0.799
645.49	0.679
645.69	0.756
645.88	0.499
646.08	0.353
646.28	0.487
646.48	0.407
646.67	0.375
646.87	0.665
647.07	0.600
647.26	0.456
647.46	0.313
647.66	0.341
647.86	0.227
648.05	0.525
648.25	0.408
648.45	0.268
648.65	0.242
648.84	0.525
649.04	0.419
649.24	0.348
649.43	0.423
649.63	0.421
649.83	0.242
650.03	0.309
650.22	0.213
650.42	0.353
650.62	0.358
650.81	0.342
651.01	0.372
651.21	0.319
651.40	0.362
651.60	0.463
651.80	0.252
652.00	0.383
652.19	0.073
652.39	0.247
652.59	0.181
652.78	0.074
652.98	0.347
653.18	0.202
653.37	0.315
653.57	-0.033
653.77	0.263
653.96	0.202
654.16	0.251
654.36	0.110
654.55	0.171
654.75	0.289
654.95	0.148
655.14	0.021
655.34	-0.030
655.54	0.247
655.73	0.282
655.93	0.087
656.13	0.062
656.32	0.071
656.52	0.089
656.72	0.119
656.91	0.182
657.11	0.119
657.31	0.094
657.50	0.197
657.70	0.026
657.90	0.106
658.09	0.009
658.29	0.070
658.49	-0.146
658.68	0.111
658.88	-0.067
659.07	-0.050
659.27	0.028
659.47	0.113
659.66	0.095
659.86	0.048
660.06	0.130
660.25	0.064
660.45	-0.269
660.64	0.287
660.84	0.189
661.04	-0.004
661.23	-0.012
661.43	0.288
661.63	0.072
661.82	0.214
662.02	0.114
662.21	0.178
662.41	0.068
662.61	-0.038
662.80	0.056
663.00	0.188
663.19	0.213
663.39	0.013
663.59	0.051
663.78	0.185
663.98	-0.092
664.17	0.112
664.37	0.183
664.57	0.112
664.76	-0.162
664.96	-0.050
665.15	0.109
665.35	0.020
665.55	0.083
665.74	-0.004
665.94	0.136
666.13	0.157
666.33	-0.020
666.53	0.114
666.72	0.191
666.92	0.046
667.11	0.144
667.31	-0.055
667.50	0.128
667.70	-0.013
667.90	-0.138
668.09	0.009
668.29	-0.035
668.48	0.181
668.68	0.136
668.87	0.070
669.07	0.154
669.26	0.063
669.46	-0.051
669.66	-0.047
669.85	-0.009
670.05	0.030
670.24	0.260
670.44	0.131
670.63	0.217
670.83	0.030
671.02	0.046
671.22	0.107
671.42	-0.130
671.61	0.090
671.81	-0.013
672.00	0.112
672.20	-0.008
672.39	-0.046
672.59	0.061
672.78	-0.087
672.98	-0.152
673.17	-0.143
673.37	-0.029
673.56	0.147
673.76	-0.112
673.95	-0.059
674.15	-0.149
674.34	0.004
674.54	-0.008
674.73	0.036
674.93	-0.016
675.13	0.004
675.32	-0.073
675.52	-0.159
675.71	-0.066
675.91	-0.049
676.10	0.004
676.30	-0.040
676.49	-0.120
676.69	0.072
676.88	-0.057
677.08	-0.214
677.27	-0.017
677.47	-0.054
677.66	0.189
677.86	0.077
678.05	-0.157
678.24	-0.076
678.44	-0.122
678.63	0.039
678.83	0.024
679.02	0.028
679.22	0.133
679.41	-0.061
679.61	-0.042
679.80	0.026
680.00	0.108
680.19	-0.013
680.39	-0.132
680.58	-0.008
680.78	0.046
680.97	0.114
681.17	0.033
681.36	0.055
681.56	-0.054
681.75	0.105
681.94	-0.119
682.14	0.119
682.33	-0.139
682.53	-0.046
682.72	-0.041
682.92	0.111
683.11	-0.158
683.31	-0.101
683.50	-0.068
683.69	0.097
683.89	-0.016
684.08	-0.081
684.28	0.048
684.47	-0.204
684.67	-0.127
684.86	-0.029
685.06	0.115
685.25	-0.140
685.44	0.078
685.64	-0.029
685.83	-0.025
686.03	-0.024
686.22	0.060
686.42	-0.041
686.61	0.000
686.80	-0.200
687.00	-0.041
687.19	0.091
687.39	-0.129
687.58	0.086
687.77	0.016
687.97	-0.084
688.16	0.056
688.36	0.093
688.55	-0.196
688.74	-0.029
688.94	-0.155
689.13	-0.100
689.33	-0.004
689.52	-0.149
689.71	-0.232
689.91	-0.112
690.10	-0.048
690.30	-0.156
690.49	0.037
690.68	-0.267
690.88	-0.186
691.07	-0.047
691.27	-0.026
691.46	-0.262
691.65	-0.052
691.85	-0.214
692.04	-0.222
692.23	-0.194
692.43	-0.206
692.62	-0.084
692.82	-0.227
693.01	0.034
693.20	0.033
693.40	0.040
693.59	-0.073
693.78	0.040
693.98	-0.199
694.17	-0.113
694.36	-0.287
694.56	-0.093
694.75	-0.081
694.94	0.092
695.14	-0.242
695.33	-0.033
695.53	-0.222
695.72	-0.233
695.91	0.128
696.11	0.098
696.30	-0.174
696.49	0.089
696.69	-0.174
696.88	0.038
697.07	-0.131
697.27	-0.148
697.46	-0.140
697.65	0.182
697.85	0.044
698.04	0.112
698.23	-0.093
698.43	0.121
698.62	-0.138
698.81	-0.201
699.01	-0.160
699.20	-0.058
699.39	-0.141
699.58	0.053
699.78	-0.036
699.97	-0.040
700.16	0.000
700.36	-0.021
700.55	0.000
700.74	0.095
700.94	-0.004
701.13	-0.013
701.32	-0.153
701.52	-0.132
701.71	-0.024
701.90	-0.114
702.09	-0.106
702.29	-0.099
702.48	0.136
702.67	-0.238
702.87	-0.113
703.06	-0.115
703.25	-0.049
703.44	-0.117
703.64	-0.201
703.83	-0.008
704.02	-0.012
704.22	-0.176
704.41	0.039
704.60	-0.018
704.79	-0.049
704.99	0.093
705.18	-0.092
705.37	-0.083
705.56	0.103
705.76	0.084
705.95	-0.042
706.14	-0.058
706.33	-0.137
706.53	-0.071
706.72	0.113
706.91	-0.038
707.11	0.124
707.30	0.056
707.49	0.150
707.68	-0.118
707.88	-0.100
708.07	-0.091
708.26	-0.191
708.45	0.089
708.64	0.113
708.84	0.033
709.03	0.129
709.22	0.195
709.41	-0.012
709.61	-0.249
709.80	-0.063
709.99	-0.136
710.18	0.065
710.38	-0.143
710.57	0.048
710.76	0.044
710.95	-0.035
711.14	-0.180
711.34	-0.004
711.53	-0.079
711.72	-0.100
711.91	-0.058
712.11	0.079
712.30	-0.106
712.49	-0.047
712.68	0.035
712.87	-0.160
713.07	0.070
713.26	0.053
713.45	-0.039
713.64	-0.022
713.83	-0.048
714.03	0.156
714.22	-0.168
714.41	-0.125
714.60	-0.198
714.79	-0.147
714.99	-0.047
715.18	0.000
715.37	-0.053
715.56	0.080
715.75	-0.009
715.94	0.027
716.14	-0.067
716.33	-0.018
716.52	-0.127
716.71	-0.233
716.90	0.086
717.10	0.099
717.29	0.116
717.48	-0.045
717.67	-0.089
717.86	-0.044
718.05	-0.132
718.24	-0.075
718.44	-0.133
718.63	-0.080
718.82	0.062
719.01	-0.407
719.20	-0.075
719.39	-0.285
719.59	-0.081
719.78	0.055
719.97	-0.074
720.16	-0.267
720.35	-0.028
720.54	0.005
720.73	-0.187
720.93	0.122
721.12	-0.028
721.31	-0.061
721.50	-0.182
721.69	-0.251
721.88	-0.134
722.07	-0.168
722.27	-0.178
722.46	-0.336
722.65	-0.014
722.84	-0.096
723.03	-0.048
723.22	-0.213
723.41	0.060
723.60	0.055
723.79	0.050
723.99	-0.042
724.18	-0.093
724.37	-0.099
724.56	-0.057
724.75	0.019
724.94	0.038
725.13	-0.066
725.32	-0.105
725.51	-0.038
725.71	-0.094
725.90	-0.076
726.09	-0.047
726.28	0.104
726.47	-0.143
726.66	-0.043
726.85	-0.049
727.04	0.218
727.23	0.010
727.42	-0.020
727.61	-0.063
727.81	0.170
728.00	0.000
728.19	-0.182
728.38	-0.071
728.57	0.110
728.76	-0.014
728.95	0.239
729.14	0.098
729.33	-0.030
729.52	0.045
729.71	-0.221
729.90	0.015
730.09	-0.162
730.28	-0.105
730.48	-0.087
730.67	0.141
730.86	0.082
731.05	0.058
731.24	-0.048
731.43	-0.286
731.62	0.157
731.81	-0.071
732.00	0.108
732.19	-0.299
732.38	-0.086
732.57	-0.127
732.76	0.090
732.95	-0.068
733.14	-0.058
733.33	-0.026
733.52	0.400
733.71	0.089
733.90	-0.021
734.09	0.010
734.28	-0.184
734.47	0.057
734.66	0.057
734.85	0.016
735.04	-0.085
735.23	0.121
735.42	0.178
735.61	-0.006
735.81	-0.090
736.00	-0.057
736.19	0.069
736.38	0.006
736.57	0.056
736.76	0.055
736.95	-0.016
737.14	-0.096
737.33	0.287
737.52	-0.010
737.71	0.134
737.90	0.170
738.09	-0.186
738.28	-0.125
738.47	-0.068
738.66	0.086
738.85	-0.134
739.04	-0.047
739.22	0.006
739.41	0.404
739.60	0.040
739.79	-0.006
739.98	0.046
740.17	0.130
740.36	0.185
740.55	0.105
740.74	0.176
740.93	0.181
741.12	0.157
741.31	0.068
741.50	0.114
741.69	0.143
741.88	0.337
742.07	0.114
742.26	0.252
742.45	0.081
742.64	0.236
742.83	0.303
743.02	0.018
743.21	0.012
743.40	0.371
743.59	0.144
743.78	0.221
743.97	-0.122
744.16	0.093
744.34	0.254
744.53	0.348
744.72	0.067
744.91	0.447
745.10	0.337
745.29	0.340
745.48	0.141
745.67	0.089
745.86	0.384
746.05	0.261
746.24	0.297
746.43	0.051
746.62	0.342
746.81	-0.039
747.00	0.209
747.18	0.273
747.37	0.218
747.56	0.537
747.75	0.510
747.94	0.106
748.13	0.213
748.32	0.315
748.51	0.518
748.70	0.417
748.89	0.518
749.08	0.504
749.26	0.617
749.45	0.192
749.64	0.854
749.83	0.454
750.02	0.654
750.21	0.478
750.40	0.941
750.59	0.378
750.78	1.032
750.96	0.813
751.15	0.825
751.34	0.829
751.53	0.665
751.72	0.800
751.91	0.644
752.10	0.607
752.29	1.094
752.47	0.732
752.66	0.951
752.85	0.976
753.04	0.816
753.23	1.148
753.42	0.572
753.61	1.054
753.80	1.074
753.98	1.292
754.17	0.942
754.36	1.083
754.55	0.900
754.74	0.963
754.93	0.975
755.12	0.717
755.30	1.100
755.49	0.873
755.68	1.436
755.87	0.764
756.06	1.066
756.25	1.065
756.43	1.162
756.62	1.221
756.81	1.053
757.00	1.092
757.19	0.991
757.38	1.201
757.56	1.136
757.75	1.352
757.94	1.740
758.13	2.135
758.32	1.917
758.51	1.541
758.69	1.623
758.88	1.926
759.07	2.603
759.26	2.810
759.45	2.802
759.63	3.249
759.82	3.332
760.01	3.740
760.20	3.731
760.39	4.103
760.57	4.434
760.76	5.191
760.95	5.129
761.14	5.123
761.33	5.399
761.51	6.128
761.70	5.635
761.89	5.849
762.08	6.569
762.27	6.641
762.45	7.223
762.64	7.385
762.83	8.256
763.02	7.995
763.21	8.034
763.39	8.825
763.58	8.470
763.77	8.692
763.96	9.547
764.14	9.805
764.33	9.589
764.52	9.921
764.71	9.730
764.89	10.204
765.08	9.535
765.27	9.678
765.46	10.085
765.65	10.933
765.83	10.594
766.02	10.652
766.21	10.822
766.40	10.886
766.58	11.952
766.77	12.674
766.96	12.623
767.15	12.744
767.33	13.625
767.52	13.942
767.71	14.054
767.90	13.804
768.08	14.426
768.27	15.211
768.46	15.338
768.64	15.400
768.83	16.412
769.02	18.157
769.21	16.462
769.39	17.368
769.58	17.234
769.77	18.496
769.96	19.396
770.14	18.737
770.33	18.900
770.52	19.970
770.70	18.953
770.89	19.235
771.08	19.973
771.27	19.880
771.45	19.021
771.64	20.627
771.83	21.043
772.01	20.430
772.20	21.019
772.39	21.748
772.57	23.129
772.76	24.534
772.95	24.138
773.14	24.620
773.32	24.834
773.51	25.484
773.70	25.887
773.88	25.565
774.07	25.612
774.26	26.519
774.44	27.594
774.63	28.005
774.82	26.118
775.00	27.314
775.19	26.578
775.38	26.374
775.56	25.119
775.75	27.294
775.94	27.172
776.12	27.041
776.31	27.386
776.50	26.727
776.68	26.967
776.87	27.037
777.06	25.858
777.24	26.189
777.43	27.768
777.62	25.405
777.80	26.795
777.99	26.154
778.18	28.890
778.36	26.442
778.55	27.915
778.74	28.050
778.92	27.744
779.11	27.742
779.29	27.148
779.48	26.373
779.67	26.281
779.85	25.730
780.04	25.286
780.23	25.564
780.41	24.025
780.60	23.396
780.79	22.824
780.97	20.974
781.16	20.669
781.34	19.897
781.53	19.108
781.72	20.540
781.90	18.410
782.09	19.783
782.28	18.030
782.46	19.047
782.65	18.018
782.83	17.685
783.02	17.821
783.21	17.813
783.39	16.931
783.58	15.705
783.76	16.253
783.95	15.588
784.14	14.872
784.32	14.528
784.51	13.383
784.69	12.900
784.88	14.011
785.06	12.025
785.25	12.197
785.44	11.442
785.62	12.243
785.81	12.186
785.99	12.159
786.18	11.201
786.37	12.078
786.55	13.740
786.74	12.203
786.92	11.825
787.11	13.774
787.29	12.680
787.48	12.614
787.67	14.266
787.85	12.744
788.04	14.410
788.22	14.993
788.41	13.290
788.59	14.651
788.78	13.991
788.96	15.268
789.15	14.691
789.34	16.606
789.52	15.748
789.71	17.201
789.89	17.036
790.08	16.814
790.26	16.682
790.45	15.095
790.63	15.911
790.82	16.036
791.00	17.352
791.19	17.440
791.38	17.531
791.56	17.370
791.75	17.284
791.93	18.630
792.12	18.846
792.30	17.524
792.49	17.470
792.67	18.180
792.86	16.633
793.04	17.954
793.23	17.358
793.41	17.566
793.60	18.369
793.78	18.740
793.97	18.540
794.15	19.207
794.34	18.785
794.52	19.172
794.71	16.951
794.89	15.446
795.08	15.137
795.26	13.952
795.45	13.659
795.63	14.166
795.82	13.210
796.00	13.332
796.19	12.832
796.37	13.068
796.56	13.673
796.74	14.213
796.93	13.119
797.11	13.233
797.30	12.696
797.48	12.090
797.67	12.155
797.85	11.864
798.04	12.684
798.22	11.441
798.41	12.298
798.59	12.909
798.77	11.512
798.96	11.588
799.14	11.983
799.33	12.003
799.51	12.440
799.70	12.810
799.88	12.774
800.07	12.433
800.25	13.747
800.44	13.640
800.62	14.602
800.80	15.235
800.99	15.175
801.17	14.945
801.36	16.657
801.54	15.962
801.73	15.506
801.91	16.280
802.10	16.647
802.28	18.061
802.46	17.875
802.65	18.042
802.83	19.714
803.02	19.231
803.20	19.314
803.39	20.310
803.57	21.105
803.75	20.879
803.94	21.596
804.12	22.440
804.31	22.954
804.49	24.139
804.67	24.889
804.86	25.274
805.04	25.731
805.23	27.878
805.41	27.663
805.59	26.278
805.78	26.981
805.96	25.027
806.15	25.142
806.33	26.222
806.51	25.333
806.70	24.528
806.88	25.350
807.07	25.182
807.25	26.485
807.43	26.958
807.62	27.070
807.80	27.229
807.99	26.552
808.17	26.125
808.35	25.516
808.54	26.880
808.72	25.582
808.90	27.804
809.09	26.048
809.27	25.906
809.46	27.562
809.64	27.482
809.82	28.430
810.01	29.180
810.19	31.166
810.37	29.617
810.56	31.679
810.74	32.649
810.92	32.769
811.11	31.306
811.29	32.561
811.48	33.137
811.66	34.567
811.84	37.409
812.03	36.629
812.21	37.240
812.39	36.840
812.58	38.188
812.76	39.102
812.94	38.141
813.13	39.936
813.31	41.332
813.49	40.912
813.68	41.668
813.86	41.984
814.04	41.252
814.23	41.599
814.41	41.630
814.59	43.704
814.78	44.548
814.96	45.286
815.14	45.448
815.33	46.282
815.51	45.740
815.69	47.223
815.87	46.523
816.06	49.418
816.24	51.569
816.42	53.487
816.61	55.603
816.79	56.288
816.97	57.415
817.16	57.788
817.34	56.077
817.52	56.730
817.70	55.768
817.89	55.093
818.07	56.678
818.25	55.101
818.44	54.463
818.62	53.037
818.80	53.623
818.98	54.481
819.17	53.171
819.35	54.769
819.53	53.952
819.72	53.101
819.90	54.701
820.08	54.224
820.26	53.349
820.45	54.047
820.63	52.407
820.81	53.109
820.99	52.065
821.18	49.646
821.36	48.777
821.54	47.064
821.73	46.747
821.91	46.932
822.09	45.328
822.27	42.826
822.46	45.122
822.64	43.248
822.82	42.445
823.00	42.897
823.19	44.833
823.37	43.500
823.55	44.509
823.73	46.913
823.91	47.422
824.10	46.357
824.28	47.797
824.46	48.988
824.64	50.250
824.83	48.710
825.01	47.098
825.19	46.016
825.37	46.374
825.56	44.625
825.74	43.967
825.92	41.486
826.10	41.728
826.28	40.938
826.47	40.735
826.65	39.688
826.83	37.677
827.01	39.154
827.19	39.631
827.38	37.976
827.56	38.794
827.74	40.935
827.92	41.193
828.10	42.558
828.29	43.656
828.47	43.497
828.65	41.952
828.83	41.799
829.01	42.156
829.20	43.861
829.38	42.639
829.56	41.427
829.74	40.778
829.92	40.941
830.10	40.689
830.29	40.299
830.47	40.654
830.65	39.386
830.83	40.572
831.01	38.292
831.20	36.730
831.38	38.381
831.56	35.132
831.74	36.946
831.92	36.911
832.10	38.651
832.29	37.243
832.47	39.339
832.65	38.870
832.83	38.878
833.01	38.188
833.19	37.299
833.37	33.963
833.56	36.572
833.74	36.819
833.92	35.482
834.10	35.611
834.28	33.214
834.46	33.287
834.64	34.907
834.83	33.127
835.01	33.717
835.19	33.435
835.37	34.340
835.55	33.847
835.73	34.108
835.91	34.127
836.09	34.711
836.28	35.346
836.46	34.945
836.64	35.172
836.82	34.975
837.00	35.254
837.18	35.901
837.36	36.031
837.54	36.582
837.72	37.208
837.91	38.264
838.09	40.330
838.27	39.272
838.45	40.368
838.63	43.006
838.81	43.125
838.99	40.033
839.17	42.447
839.35	42.078
839.53	42.722
839.72	44.046
839.90	40.385
840.08	40.417
840.26	42.398
840.44	42.013
840.62	40.256
840.80	41.686
840.98	42.555
841.16	44.252
841.34	42.043
841.52	39.872
841.70	39.961
841.89	39.607
842.07	41.392
842.25	39.993
842.43	38.860
842.61	38.378
842.79	39.517
842.97	40.054
843.15	41.908
843.33	38.963
843.51	40.000
843.69	39.458
843.87	39.291
844.05	41.534
844.23	43.839
844.41	44.306
844.59	43.258
844.77	42.459
844.95	41.068
845.13	42.764
845.31	39.375
845.50	41.468
845.68	40.693
845.86	40.256
846.04	40.329
846.22	39.162
846.40	40.604
846.58	38.298
846.76	41.716
846.94	40.735
847.12	40.794
847.30	39.843
847.48	37.481
847.66	41.590
847.84	39.947
848.02	40.238
848.20	40.533
848.38	40.550
848.56	40.291
848.74	40.016
848.92	40.294
849.10	39.717
849.28	43.480
849.46	42.711
849.64	44.107
849.82	43.935
850.00	43.607
850.18	43.621
850.36	43.431
850.54	46.188
850.72	46.249
850.90	46.638
851.08	47.181
851.26	47.859
851.44	48.558
851.62	51.181
851.80	53.826
851.98	55.861
852.16	56.514
852.34	59.482
852.52	57.190
852.70	55.367
852.87	56.826
853.05	58.797
853.23	56.040
853.41	59.349
853.59	59.728
853.77	60.091
853.95	61.510
854.13	57.931
854.31	58.164
854.49	57.284
854.67	55.564
854.85	54.690
855.03	56.597
855.21	54.696
855.39	57.594
855.57	56.217
855.75	55.899
855.93	56.276
856.11	57.421
856.28	58.992
856.46	59.290
856.64	59.333
856.82	60.232
857.00	56.245
857.18	55.388
857.36	51.871
857.54	52.078
857.72	54.825
857.90	53.758
858.08	50.351
858.26	51.336
858.44	52.567
858.61	48.192
858.79	50.980
858.97	52.171
859.15	51.740
859.33	51.112
859.51	51.622
859.69	49.831
859.87	49.334
860.05	48.827
860.23	49.305
860.40	48.651
860.58	50.037
860.76	49.233
860.94	51.424
861.12	49.656
861.30	52.746
861.48	51.183
861.66	52.512
861.84	54.810
862.01	53.204
862.19	56.340
862.37	54.969
862.55	57.439
862.73	55.904
862.91	55.030
863.09	57.570
863.27	50.670
863.44	54.280
863.62	53.742
863.80	53.556
863.98	54.352
864.16	51.651
864.34	53.918
864.52	53.287
864.69	51.086
864.87	52.236
865.05	52.780
865.23	51.026
865.41	51.561
865.59	52.599
865.76	47.167
865.94	49.053
866.12	48.634
866.30	46.645
866.48	47.826
866.66	45.865
866.83	47.778
867.01	44.757
867.19	43.392
867.37	42.903
867.55	42.171
867.73	39.014
867.90	40.428
868.08	40.955
868.26	39.795
868.44	41.820
868.62	41.687
868.79	42.103
868.97	42.664
869.15	44.420
869.33	44.700
869.51	46.638
869.69	47.271
869.86	44.903
870.04	45.657
870.22	44.159
870.40	46.603
870.57	48.152
870.75	45.636
870.93	46.610
871.11	45.706
871.29	47.311
871.46	45.116
871.64	50.036
871.82	47.599
872.00	47.242
872.18	48.712
872.35	45.182
872.53	49.566
872.71	46.348
872.89	46.162
873.06	49.096
873.24	46.264
873.42	45.487
873.60	46.472
873.77	48.678
873.95	46.171
874.13	48.035
874.31	45.828
874.49	43.489
874.66	43.685
874.84	46.205
875.02	43.717
875.20	45.473
875.37	43.918
875.55	46.414
875.73	46.418
875.91	46.599
876.08	50.106
876.26	49.667
876.44	52.630
876.61	48.141
876.79	47.055
876.97	45.657
877.15	46.527
877.32	46.715
877.50	44.239
877.68	42.003
877.86	43.403
878.03	42.967
878.21	42.669
878.39	43.254
878.56	45.470
878.74	41.987
878.92	40.268
879.10	40.791
879.27	41.808
879.45	38.639
879.63	39.337
879.80	38.713
879.98	39.409
880.16	39.084
880.34	39.423
880.51	40.772
880.69	39.141
880.87	38.639
881.04	38.087
881.22	39.091
881.40	37.036
881.57	38.181
881.75	39.807
881.93	39.708
882.10	38.021
882.28	40.334
882.46	39.027
882.63	38.137
882.81	37.835
882.99	37.603
883.16	36.663
883.34	35.533
883.52	33.433
883.69	36.278
883.87	37.052
884.05	36.731
884.22	33.943
884.40	35.714
884.58	34.163
884.75	36.809
884.93	36.822
885.11	37.609
885.28	36.324
885.46	35.923
885.64	35.423
885.81	36.196
885.99	37.098
886.17	37.720
886.34	41.714
886.52	35.386
886.70	40.099
886.87	39.260
887.05	38.472
887.22	38.451
887.40	37.780
887.58	38.372
887.75	39.696
887.93	41.077
888.11	38.672
888.28	39.816
888.46	39.898
888.63	39.174
888.81	41.017
888.99	41.625
889.16	41.873
889.34	43.294
889.51	46.385
889.69	46.236
889.87	47.706
890.04	48.345
890.22	49.838
890.39	50.692
890.57	51.653
890.75	50.665
890.92	52.192
891.10	54.333
891.27	55.147
891.45	55.046
891.63	57.949
891.80	58.470
891.98	56.036
892.15	55.297
892.33	61.806
892.51	59.460
892.68	59.041
892.86	57.592
893.03	55.957
893.21	57.552
893.38	58.333
893.56	57.681
893.74	58.761
893.91	61.338
894.09	56.146
894.26	55.060
894.44	57.380
894.61	53.844
894.79	54.038
894.96	53.291
895.14	52.286
895.32	51.065
895.49	50.235
895.67	49.578
895.84	51.331
896.02	49.018
896.19	49.446
896.37	47.368
896.54	50.938
896.72	51.592
896.89	50.590
897.07	48.939
897.25	47.205
897.42	50.543
897.60	49.150
897.77	50.207
897.95	47.697
898.12	48.494
898.30	47.698
898.47	49.730
898.65	50.410
898.82	49.741
899.00	48.661
899.17	47.883
899.35	48.565
899.52	48.831
899.70	47.884
899.87	49.299
900.05	49.022
900.22	47.954
900.40	47.883
900.57	47.248
900.75	46.590
900.92	47.758
901.10	49.112
901.27	47.924
901.45	48.717
901.62	48.822
901.80	46.701
901.97	47.646
902.15	47.854
902.32	48.050
902.50	49.407
902.67	45.986
902.85	47.962
903.02	48.351
903.20	46.554
903.37	45.304
903.54	47.442
903.72	49.296
903.89	46.069
904.07	47.131
904.24	46.979
904.42	48.075
904.59	44.216
904.77	45.148
904.94	43.773
905.12	43.225
905.29	42.335
905.47	41.411
905.64	42.757
905.81	42.690
905.99	44.975
906.16	44.587
906.34	44.453
906.51	47.914
906.69	44.648
906.86	46.209
907.03	44.574
907.21	45.661
907.38	43.359
907.56	39.427
907.73	40.377
907.91	42.389
908.08	40.909
908.25	38.217
908.43	42.869
908.60	39.716
908.78	42.782
908.95	38.733
909.13	41.635
909.30	39.755
909.47	38.594
909.65	40.118
909.82	37.081
910.00	38.392
910.17	38.500
910.34	39.932
910.52	35.925
910.69	40.000
910.87	37.366
911.04	39.248
911.21	40.806
911.39	39.102
911.56	37.749
911.73	38.158
911.91	41.755
912.08	41.379
912.26	40.479
912.43	43.775
912.60	42.215
912.78	42.672
912.95	44.739
913.13	45.700
913.30	45.911
913.47	49.010
913.65	47.646
913.82	47.752
913.99	46.136
914.17	47.544
914.34	42.891
914.51	46.184
914.69	46.389
914.86	44.836
915.03	49.083
915.21	47.591
915.38	48.927
915.56	49.302
915.73	53.692
915.90	49.871
916.08	50.453
916.25	52.542
916.42	46.778
916.60	49.131
916.77	47.117
916.94	48.729
917.12	48.240
917.29	48.454
917.46	47.912
917.64	46.036
917.81	46.109
917.98	46.485
918.16	47.602
918.33	45.474
918.50	46.265
918.67	44.708
918.85	47.052
919.02	44.848
919.19	48.665
919.37	44.688
919.54	47.145
919.71	38.591
919.89	46.189
920.06	43.957
920.23	43.414
920.41	40.558
920.58	44.186
920.75	46.361
920.92	40.372
921.10	42.529
921.27	37.763
921.44	41.754
921.62	43.842
921.79	37.631
921.96	40.620
922.13	41.712
922.31	38.828
922.48	45.546
922.65	40.272
922.82	42.096
923.00	38.289
923.17	41.006
923.34	36.434
923.52	40.226
923.69	39.619
923.86	38.024
924.03	40.000
924.21	40.372
924.38	40.013
924.55	39.664
924.72	41.149
924.90	43.607
925.07	43.668
925.24	42.999
925.41	44.153
925.59	42.645
925.76	43.301
925.93	45.735
926.10	43.253
926.28	43.625
926.45	43.507
926.62	38.451
926.79	41.342
926.96	39.677
927.14	42.716
927.31	37.950
927.48	41.106
927.65	40.158
927.83	39.865
928.00	37.816
928.17	39.851
928.34	39.890
928.51	41.458
928.69	42.375
928.86	42.570
929.03	40.609
929.20	42.772
929.37	39.724
929.55	41.807
929.72	40.134
929.89	47.253
930.06	45.658
930.23	41.640
930.41	38.524
930.58	45.222
930.75	44.426
930.92	45.771
931.09	46.367
931.27	43.609
931.44	45.690
931.61	43.936
931.78	41.753
931.95	46.140
932.12	45.113
932.30	42.082
932.47	40.296
932.64	43.931
932.81	39.229
932.98	40.036
933.16	45.510
933.33	43.440
933.50	46.989
933.67	40.944
933.84	43.219
934.01	43.272
934.18	41.935
934.36	45.247
934.53	46.734
934.70	46.199
934.87	40.758
935.04	46.925
935.21	43.236
935.38	42.764
935.56	43.139
935.73	50.050
935.90	44.348
936.07	42.857
936.24	52.229
936.41	46.782
936.58	50.704
936.76	50.563
936.93	52.139
937.10	53.118
937.27	49.227
937.44	54.930
937.61	53.708
937.78	49.355
937.95	46.667
938.13	54.125
938.30	51.978
938.47	45.092
938.64	48.764
938.81	45.726
938.98	46.674
939.15	44.222
939.32	47.323
939.49	44.409
939.66	48.373
939.84	46.633
940.01	46.017
940.18	52.287
940.35	46.902
940.52	45.538
940.69	46.828
940.86	43.632
941.03	46.007
941.20	39.207
941.37	42.367
941.54	45.650
941.71	46.552
941.89	46.574
942.06	45.307
942.23	47.342
942.40	43.563
942.57	43.446
942.74	49.545
942.91	46.252
943.08	48.858
943.25	55.359
943.42	50.421
943.59	49.803
943.76	52.497
943.93	50.068
944.10	51.323
944.27	45.308
944.44	43.798
944.61	52.682
944.79	44.648
944.96	55.423
945.13	45.632
945.30	50.678
945.47	55.479
945.64	48.485
945.81	46.399
945.98	52.276
946.15	52.681
946.32	53.964
946.49	50.575
946.66	56.528
946.83	49.588
947.00	50.877
947.17	49.335
947.34	49.199
947.51	58.959
947.68	58.202
947.85	57.508
948.02	45.714
948.19	57.075
948.36	67.174
948.53	60.727
948.70	63.262
948.87	62.562
949.04	53.116
949.21	59.406
949.38	61.905
949.55	51.138
949.72	61.285
949.89	55.156
950.06	63.668
950.23	53.199
950.40	58.375
950.57	59.099
950.74	62.721
950.91	68.750
951.08	60.976
951.25	65.970
951.42	59.168
951.59	59.675
951.76	59.798
951.93	57.734
952.10	61.957
952.27	54.386
952.44	51.224
952.61	71.398
952.77	56.926
952.94	64.431
953.11	53.524
953.28	55.094
953.45	57.317
953.62	57.532
953.79	54.259
953.96	46.875
954.13	57.854
954.30	54.839
954.47	58.053
954.64	52.692
954.81	51.308
954.98	46.225
955.15	61.600
955.32	50.615
955.49	50.881
955.65	54.200
955.82	48.473
955.99	56.506
956.16	54.241
956.33	55.865
956.50	53.113
956.67	46.881
956.84	50.187
957.01	58.248
957.18	54.473
957.35	47.782
957.52	48.594
957.68	55.804
957.85	50.426
958.02	48.371
958.19	50.732
958.36	55.213
958.53	68.490
958.70	50.964
958.87	52.796
959.04	52.308
959.21	50.220
959.37	69.351
959.54	66.897
959.71	56.161
959.88	53.362
960.05	47.506
960.22	62.136
960.39	44.928
960.56	50.000
960.72	48.857
960.89	54.989
961.06	42.708
961.23	35.828
961.40	40.580
961.57	50.463
961.74	42.885
961.90	46.869
962.07	46.835
962.24	48.479
962.41	41.943
962.58	45.726
962.75	48.954
962.92	44.227
963.08	44.270
963.25	43.167
963.42	44.365
963.59	48.093
963.76	53.725
963.93	36.927
964.10	46.744
964.26	51.464
964.43	46.882
964.60	52.941
964.77	56.713
964.94	51.415
965.10	49.793
965.27	52.174
965.44	51.025
965.61	50.272
965.78	46.364
965.95	41.766
966.11	59.447
966.28	50.693
966.45	55.801
966.62	54.087
966.79	51.852
966.95	56.335
967.12	40.315
967.29	54.875
967.46	50.000
967.63	48.085
967.79	56.833
967.96	58.850
968.13	46.394
968.30	43.110
968.47	51.042
968.63	52.878
968.80	54.709
968.97	57.403
969.14	52.673
969.31	46.795
969.47	46.947
969.64	40.882
969.81	42.072
969.98	46.814
970.14	52.278
970.31	44.130
970.48	54.018
970.65	52.000
970.81	52.344
970.98	44.111
971.15	40.881
971.32	47.111
971.48	49.011
971.65	53.100
971.82	51.242
971.99	46.561
972.15	55.344
972.32	43.427
972.49	39.446
972.66	47.545
972.82	42.212
972.99	47.765
973.16	49.359
973.33	59.479
973.49	43.577
973.66	52.646
973.83	46.173
974.00	50.450
974.16	58.409
974.33	60.894
974.50	64.493
974.67	51.358
974.83	54.479
975.00	55.502
975.17	58.391
975.33	53.738
975.50	55.645
975.67	58.295
975.84	55.342
976.00	59.059
976.17	53.882
976.34	62.312
976.50	69.613
976.67	63.991
976.84	55.357
977.00	51.537
977.17	60.563
977.34	58.373
977.50	60.590
977.67	54.110
977.84	57.020
978.01	62.042
978.17	71.033
978.34	61.042
978.51	54.964
978.67	56.651
978.84	57.241
979.01	41.274
979.17	67.789
979.34	54.922
979.51	48.500
979.67	62.864
979.84	54.394
980.01	51.025
980.17	57.184
980.34	53.646
980.51	58.199
980.67	51.169
980.84	45.979
981.01	47.980
981.17	42.353
981.34	41.684
981.50	59.375
981.67	48.387
981.84	50.611
982.00	46.392
982.17	43.511
982.34	55.140
982.50	58.740
982.67	38.501
982.84	52.103
983.00	67.624
983.17	38.761
983.33	52.667
983.50	37.444
983.67	46.916
983.83	44.989
984.00	42.548
984.17	38.197
984.33	38.750
984.50	28.118
984.66	43.041
984.83	39.103
985.00	32.889
985.16	22.785
985.33	30.682
985.49	29.299
985.66	29.385
985.83	29.303
985.99	32.919
986.16	36.399
986.32	33.735
986.49	41.176
986.66	38.269
986.82	39.520
986.99	33.566
987.15	29.907
987.32	36.792
987.49	39.140
987.65	34.965
987.82	27.577
987.98	23.005
988.15	39.695
988.31	28.132
988.48	39.336
988.65	37.831
988.81	29.530
988.98	26.627
989.14	29.384
989.31	37.352
989.47	36.058
989.64	27.027
989.80	36.150
989.97	31.385
990.14	42.340
990.30	31.731
990.47	36.165
990.63	32.715
990.80	33.196
990.96	32.028
991.13	28.125
991.29	34.917
991.46	46.556
991.62	26.279
991.79	36.952
991.95	34.537
992.12	31.746
992.29	37.195
992.45	42.431
992.62	33.632
992.78	32.075
992.95	44.976
993.11	25.503
993.28	43.765
993.44	26.696
993.61	35.062
993.77	36.126
993.94	20.595
994.10	33.966
994.27	44.010
994.43	42.616
994.60	45.500
994.76	36.028
994.93	33.713
995.09	38.544
995.26	50.728
995.42	41.363
995.59	44.063
995.75	46.528
995.92	33.412
996.08	42.588
996.25	45.926
996.41	31.127
996.58	44.521
996.74	35.032
996.91	40.209
997.07	38.780
997.23	42.647
997.40	33.775
997.56	29.439
997.73	46.750
997.89	23.937
998.06	32.819
998.22	33.415
998.39	39.916
998.55	42.263
998.72	31.542
998.88	45.500
999.05	45.902
999.21	32.697
999.37	42.287
999.54	46.970
999.70	42.670
999.87	34.673
1000.03	43.836
1000.20	39.423
1000.36	42.686
1000.52	38.075
1000.69	42.424
1000.85	31.533
1001.02	31.963
1001.18	33.652
1001.35	40.764
1001.51	30.735
1001.67	38.753
1001.84	41.983
1002.00	38.655
1002.17	35.092
1002.33	39.813
1002.50	40.858
1002.66	47.867
1002.82	54.020
1002.99	52.800
1003.15	48.120
1003.32	52.632
1003.48	38.278
1003.64	36.132
1003.81	44.101
1003.97	53.881
1004.14	66.588
1004.30	46.929
1004.46	58.747
1004.63	40.693
1004.79	38.684
1004.95	48.072
1005.12	53.571
1005.28	41.885
1005.45	45.622
1005.61	43.765
1005.77	48.030
1005.94	41.480
1006.10	43.829
1006.26	35.731
1006.43	51.185
1006.59	50.281
1006.76	32.190
1006.92	43.529
1007.08	50.239
1007.25	45.916
1007.41	47.242
1007.57	25.980
1007.74	39.043
1007.90	40.722
1008.06	38.542
1008.23	55.385
1008.39	41.004
1008.55	42.396
1008.72	27.930
1008.88	39.778
1009.04	46.652
1009.21	41.527
1009.37	47.895
1009.53	42.206
1009.70	43.817
1009.86	53.704
1010.02	31.207
1010.19	45.143
1010.35	36.873
1010.51	59.189
1010.68	52.020
1010.84	41.470
1011.00	46.923
1011.17	45.429
1011.33	41.076
1011.49	48.023
1011.66	45.641
1011.82	45.013
1011.98	46.224
1012.14	38.630
1012.31	49.853
1012.47	48.593
1012.63	47.701
1012.80	42.063
1012.96	49.733
1013.12	36.667
1013.29	46.537
1013.45	51.697
1013.61	49.096
1013.77	52.196
1013.94	43.081
1014.10	26.970
1014.26	47.525
1014.43	48.352
1014.59	34.239
1014.75	49.741
1014.91	42.563
1015.08	28.571
1015.24	39.244
1015.40	43.750
1015.56	41.053
1015.73	41.235
1015.89	36.828
1016.05	42.654
1016.21	40.103
1016.38	47.185
1016.54	42.982
1016.70	52.941
1016.86	51.149
1017.03	37.602
1017.19	48.130
1017.35	36.792
1017.51	35.616
1017.68	47.792
1017.84	43.765
1018.00	50.914
1018.16	42.778
1018.33	58.146
1018.49	47.619
1018.65	50.136
1018.81	65.138
1018.97	38.244
1019.14	58.583
1019.30	58.924
1019.46	43.986
1019.62	39.062
1019.79	59.875
1019.95	45.758
1020.11	57.009
1020.27	62.951
1020.43	64.561
1020.60	49.242
1020.76	84.270
1020.92	63.305
1021.08	42.763
1021.24	59.006
1021.41	45.000
1021.57	64.080
1021.73	62.295
1021.89	55.592
1022.05	58.537
1022.21	61.944
1022.38	43.143
1022.54	51.576
1022.70	57.667
1022.86	72.046
1023.02	64.928
1023.19	69.079
1023.35	61.415
1023.51	48.397
1023.67	54.651
1023.83	68.702
1023.99	51.761
1024.16	56.349
1024.32	55.016
1024.48	68.440
1024.64	54.967
1024.80	57.801
1024.96	48.765
1025.12	68.025
1025.29	53.357
1025.45	63.571
1025.61	44.516
1025.77	67.148
1025.93	56.832
1026.09	64.479
1026.26	59.797
1026.42	66.803
1026.58	54.671
1026.74	58.039
1026.90	51.360
1027.06	52.805
1027.22	53.020
1027.38	76.950
1027.55	82.039
1027.71	48.256
1027.87	65.763
1028.03	64.940
1028.19	56.271
1028.35	59.410
1028.51	67.208
1028.67	60.837
1028.83	61.472
1029.00	57.931
1029.16	63.750
1029.32	59.774
1029.48	50.391
1029.64	66.230
1029.80	67.073
1029.96	65.608
1030.12	53.114
1030.28	40.351
1030.44	73.016
1030.61	61.603
1030.77	60.656
1030.93	56.746
1031.09	34.510
1031.25	60.914
1031.41	49.799
1031.57	57.806
1031.73	55.000
1031.89	58.657
1032.05	50.187
1032.21	45.714
1032.37	43.885
1032.53	59.551
1032.69	67.382
1032.86	50.000
1033.02	36.545
1033.18	60.769
1033.34	41.219
1033.50	49.223
1033.66	57.358
1033.82	64.835
1033.98	41.379
1034.14	58.525
1034.30	40.458
1034.46	43.985
1034.62	41.961
1034.78	64.706
1034.94	37.906
1035.10	37.379
1035.26	44.674
1035.42	53.974
1035.58	60.650
1035.74	58.091
1035.90	69.756
1036.06	37.453
1036.22	42.748
1036.38	50.220
1036.54	55.328
1036.70	51.250
1036.86	58.247
1037.02	56.777
1037.18	79.524
1037.34	57.143
1037.50	67.961
1037.66	71.579
1037.82	70.139
1037.98	69.176
1038.14	52.486
1038.30	50.000
1038.46	56.835
1038.62	74.178
1038.78	65.865
1038.94	88.177
1039.10	66.986
1039.26	74.569
1039.42	60.550
1039.58	73.964
1039.74	65.272
1039.90	55.500
1040.06	80.976
>>>>>End Processed Spectral Data<<<<<
