SpectraSuite Data File
++++++++++++++++++++++++++++++++++++
Date: Wed Jan 25 18:55:06 EET 2017
User: TheoProf
Dark Spectrum Present: Yes
Reference Spectrum Present: Yes
Number of Sampled Component Spectra: 1
Spectrometers: USB4C02475
Integration Time (usec): 64136 (USB4C02475)
Spectra Averaged: 1 (USB4C02475)
Boxcar Smoothing: 0 (USB4C02475)
Correct for Electrical Dark: No (USB4C02475)
Strobe/Lamp Enabled: No (USB4C02475)
Correct for Detector Non-linearity: No (USB4C02475)
Correct for Stray Light: No (USB4C02475)
Number of Pixels in Processed Spectrum: 3648
>>>>>Begin Processed Spectral Data<<<<<
344.91	133.333
345.13	133.333
345.35	133.333
345.57	71.429
345.79	525.000
346.00	-68.421
346.22	-825.000
346.44	93.103
346.66	-340.000
346.87	155.172
347.09	200.000
347.31	60.870
347.53	-15.686
347.74	68.421
347.96	153.571
348.18	275.000
348.40	57.895
348.61	284.615
348.83	48.485
349.05	50.820
349.27	25.000
349.48	52.941
349.70	252.941
349.92	-96.774
350.14	42.623
350.35	74.074
350.57	72.917
350.79	67.647
351.01	27.692
351.22	130.000
351.44	96.154
351.66	-20.000
351.87	61.111
352.09	-262.500
352.31	-57.143
352.53	60.000
352.74	-34.483
352.96	16.000
353.18	29.268
353.40	1350.000
353.61	40.476
353.83	309.091
354.05	-200.000
354.26	42.424
354.48	92.857
354.70	-110.526
354.92	-169.231
355.13	27.586
355.35	5.660
355.57	35.294
355.78	22.581
356.00	45.833
356.22	58.904
356.44	28.125
356.65	9.615
356.87	69.231
357.09	38.000
357.30	1.020
357.52	150.000
357.74	-18.182
357.95	154.167
358.17	6.818
358.39	25.581
358.60	68.750
358.82	-161.538
359.04	60.000
359.26	-21.569
359.47	-27.778
359.69	15.842
359.91	-55.000
360.12	-230.000
360.34	27.027
360.56	233.333
360.77	66.667
360.99	82.759
361.21	8.929
361.42	42.553
361.64	62.500
361.86	-16.667
362.07	-21.951
362.29	29.545
362.51	58.333
362.72	330.769
362.94	32.308
363.16	25.000
363.37	1.562
363.59	-80.000
363.81	87.500
364.02	89.796
364.24	-184.615
364.46	48.077
364.67	400.000
364.89	-93.939
365.11	-90.741
365.32	89.286
365.54	-215.789
365.76	42.529
365.97	42.424
366.19	-36.364
366.41	-142.857
366.62	-88.571
366.84	500.000
367.05	-32.727
367.27	112.121
367.49	93.548
367.70	-28.571
367.92	-36.842
368.14	-69.048
368.35	5.882
368.57	41.772
368.79	9.434
369.00	16.327
369.22	-100.000
369.43	43.750
369.65	-50.000
369.87	77.143
370.08	-52.778
370.30	340.000
370.51	-820.000
370.73	24.242
370.95	-73.077
371.16	-1.852
371.38	400.000
371.60	1066.667
371.81	26.316
372.03	31.884
372.24	225.000
372.46	48.276
372.68	95.833
372.89	8.772
373.11	-83.051
373.32	85.185
373.54	-23.684
373.76	134.694
373.97	18.919
374.19	-97.436
374.40	13.793
374.62	-25.000
374.84	-16.000
375.05	42.593
375.27	-20.000
375.48	58.824
375.70	-20.690
375.92	75.000
376.13	13.333
376.35	49.206
376.56	-42.857
376.78	70.455
376.99	-30.769
377.21	-144.186
377.43	-30.769
377.64	27.273
377.86	39.286
378.07	660.000
378.29	-59.091
378.51	88.889
378.72	60.274
378.94	10.000
379.15	35.088
379.37	-40.000
379.58	-281.250
379.80	39.583
380.01	-57.895
380.23	53.333
380.45	-10.526
380.66	-5.797
380.88	59.091
381.09	-18.750
381.31	-50.000
381.52	-65.217
381.74	81.053
381.95	-350.000
382.17	27.273
382.39	-39.655
382.60	26.190
382.82	-104.000
383.03	-275.000
383.25	-21.250
383.46	0.000
383.68	-79.545
383.89	33.333
384.11	-5.085
384.32	-13.953
384.54	47.475
384.76	17.391
384.97	35.294
385.19	-10.417
385.40	22.581
385.62	8.621
385.83	-12.698
386.05	71.667
386.26	7.407
386.48	-47.541
386.69	25.926
386.91	0.000
387.12	-29.231
387.34	17.308
387.55	-55.556
387.77	-4.110
387.98	-10.784
388.20	15.789
388.41	-11.429
388.63	62.000
388.84	5.882
389.06	24.242
389.27	32.673
389.49	53.846
389.70	50.980
389.92	-17.857
390.13	47.959
390.35	19.118
390.56	86.275
390.78	-6.818
390.99	52.113
391.21	11.765
391.42	20.988
391.64	40.000
391.85	69.444
392.07	-375.000
392.28	6.557
392.50	-31.111
392.71	-50.000
392.93	-53.448
393.14	8.491
393.36	25.472
393.57	-29.032
393.79	-5700.000
394.00	25.490
394.22	-16.667
394.43	20.430
394.65	-27.419
394.86	32.692
395.08	49.367
395.29	38.824
395.50	21.951
395.72	48.387
395.93	-0.752
396.15	12.097
396.36	6.897
396.58	20.870
396.79	59.459
397.01	-12.500
397.22	-7.463
397.44	-8.403
397.65	8.333
397.87	2.703
398.08	26.496
398.29	-17.647
398.51	34.667
398.72	32.576
398.94	-2.632
399.15	0.000
399.37	2.985
399.58	-15.957
399.80	20.588
400.01	57.143
400.22	-9.259
400.44	36.667
400.65	-2.941
400.87	-4.310
401.08	-13.636
401.30	-58.333
401.51	-16.129
401.72	10.323
401.94	45.690
402.15	0.862
402.37	14.151
402.58	-22.222
402.80	5.479
403.01	16.049
403.22	7.368
403.44	26.515
403.65	52.206
403.87	18.571
404.08	34.615
404.30	5.385
404.51	34.746
404.72	36.170
404.94	18.321
405.15	23.649
405.37	41.732
405.58	-12.857
405.79	-8.421
406.01	20.261
406.22	-1.600
406.44	39.007
406.65	17.500
406.86	15.894
407.08	56.481
407.29	35.526
407.51	41.667
407.72	25.000
407.93	32.237
408.15	41.718
408.36	23.358
408.58	28.649
408.79	45.775
409.00	13.548
409.22	31.148
409.43	42.553
409.64	14.062
409.86	33.333
410.07	29.747
410.29	38.785
410.50	2.542
410.71	45.098
410.93	27.273
411.14	30.061
411.35	28.105
411.57	4.819
411.78	17.160
412.00	19.580
412.21	17.123
412.42	36.527
412.64	22.727
412.85	56.725
413.06	23.394
413.28	33.333
413.49	23.671
413.70	18.079
413.92	27.586
414.13	25.000
414.34	44.503
414.56	-6.135
414.77	18.235
414.98	9.424
415.20	9.827
415.41	13.333
415.63	21.930
415.84	23.529
416.05	41.304
416.27	23.636
416.48	41.803
416.69	38.288
416.91	22.705
417.12	41.667
417.33	54.430
417.55	14.535
417.76	24.713
417.97	34.146
418.19	55.072
418.40	35.165
418.61	33.193
418.83	35.294
419.04	38.739
419.25	36.475
419.46	39.738
419.68	56.190
419.89	25.134
420.10	40.586
420.32	22.709
420.53	36.546
420.74	30.769
420.96	37.052
421.17	32.016
421.38	35.249
421.60	35.833
421.81	38.333
422.02	45.211
422.23	19.087
422.45	30.741
422.66	32.917
422.87	30.153
423.09	1.322
423.30	37.963
423.51	39.852
423.73	49.351
423.94	49.135
424.15	55.212
424.36	43.438
424.58	43.253
424.79	45.875
425.00	34.507
425.22	37.667
425.43	52.174
425.64	37.662
425.85	34.413
426.07	37.539
426.28	40.068
426.49	38.745
426.71	33.626
426.92	40.828
427.13	56.106
427.34	41.212
427.56	55.357
427.77	53.125
427.98	48.387
428.19	37.838
428.41	51.195
428.62	48.288
428.83	58.774
429.04	42.547
429.26	39.233
429.47	58.154
429.68	32.615
429.89	50.595
430.11	48.438
430.32	47.493
430.53	45.714
430.74	42.236
430.96	50.000
431.17	46.154
431.38	43.226
431.59	43.731
431.81	33.333
432.02	33.989
432.23	39.545
432.44	38.718
432.66	52.514
432.87	35.866
433.08	39.815
433.29	36.802
433.51	46.078
433.72	43.091
433.93	51.049
434.14	57.746
434.35	51.816
434.57	45.073
434.78	46.988
434.99	50.000
435.20	60.194
435.42	54.918
435.63	66.052
435.84	56.507
436.05	58.025
436.26	55.985
436.48	50.467
436.69	48.511
436.90	44.722
437.11	51.583
437.32	56.367
437.54	47.609
437.75	56.660
437.96	39.122
438.17	52.745
438.38	61.446
438.60	44.216
438.81	47.791
439.02	51.581
439.23	46.667
439.44	54.492
439.66	37.857
439.87	39.729
440.08	52.893
440.29	43.798
440.50	33.204
440.72	30.064
440.93	37.790
441.14	34.799
441.35	42.829
441.56	44.742
441.77	45.813
441.99	42.786
442.20	41.577
442.41	40.608
442.62	49.483
442.83	47.635
443.04	44.190
443.26	37.002
443.47	48.421
443.68	47.980
443.89	48.435
444.10	48.566
444.31	44.646
444.53	36.895
444.74	42.247
444.95	39.060
445.16	45.134
445.37	33.333
445.58	46.129
445.80	39.580
446.01	43.457
446.22	34.530
446.43	40.798
446.64	27.565
446.85	32.366
447.06	36.273
447.28	24.708
447.49	30.031
447.70	26.300
447.91	27.149
448.12	24.133
448.33	19.310
448.54	19.011
448.76	12.518
448.97	15.233
449.18	8.401
449.39	8.882
449.60	11.236
449.81	15.625
450.02	2.680
450.23	6.901
450.45	3.421
450.66	6.415
450.87	11.682
451.08	13.738
451.29	0.834
451.50	2.767
451.71	-0.784
451.92	-0.368
452.13	9.453
452.35	2.442
452.56	0.624
452.77	6.581
452.98	4.521
453.19	4.215
453.40	3.150
453.61	6.309
453.82	5.959
454.03	6.380
454.25	1.935
454.46	3.338
454.67	4.665
454.88	4.330
455.09	2.022
455.30	-0.972
455.51	7.754
455.72	6.000
455.93	2.468
456.14	3.725
456.35	0.784
456.56	7.178
456.78	-0.831
456.99	-2.861
457.20	0.775
457.41	5.857
457.62	3.667
457.83	-1.758
458.04	3.549
458.25	1.244
458.46	3.525
458.67	-2.142
458.88	4.047
459.09	2.330
459.30	-1.111
459.51	-0.848
459.73	3.085
459.94	-0.780
460.15	2.965
460.36	2.027
460.57	-2.520
460.78	0.638
460.99	3.231
461.20	1.537
461.41	4.697
461.62	2.826
461.83	2.604
462.04	2.314
462.25	2.032
462.46	2.091
462.67	-0.341
462.88	4.159
463.09	0.267
463.30	-0.084
463.51	1.381
463.72	0.256
463.93	1.869
464.15	0.608
464.36	3.228
464.57	-2.088
464.78	2.790
464.99	2.437
465.20	2.954
465.41	6.415
465.62	1.290
465.83	4.149
466.04	1.181
466.25	-1.472
466.46	3.910
466.67	2.219
466.88	1.168
467.09	3.496
467.30	0.341
467.51	2.046
467.72	1.669
467.93	1.620
468.14	3.297
468.35	1.127
468.56	0.584
468.77	3.379
468.98	1.344
469.19	2.902
469.40	1.233
469.61	2.397
469.82	1.720
470.03	-1.104
470.24	-0.752
470.45	2.982
470.66	3.098
470.87	3.382
471.08	0.120
471.29	2.370
471.50	1.508
471.71	1.648
471.92	2.825
472.13	0.776
472.34	2.510
472.55	-0.376
472.76	1.354
472.97	0.326
473.18	0.000
473.39	2.136
473.60	2.460
473.81	1.636
474.01	0.049
474.22	2.920
474.43	1.036
474.64	-1.784
474.85	0.852
475.06	-0.796
475.27	1.829
475.48	0.787
475.69	2.119
475.90	0.746
476.11	2.357
476.32	0.973
476.53	1.034
476.74	1.347
476.95	1.418
477.16	1.111
477.37	1.465
477.58	1.054
477.79	1.029
478.00	1.009
478.21	2.526
478.41	1.923
478.62	1.338
478.83	1.442
479.04	1.257
479.25	2.095
479.46	0.709
479.67	3.377
479.88	3.557
480.09	0.734
480.30	1.495
480.51	0.959
480.72	1.475
480.93	0.138
481.14	1.152
481.34	0.492
481.55	1.151
481.76	0.364
481.97	1.075
482.18	1.920
482.39	1.855
482.60	1.046
482.81	0.809
483.02	1.671
483.23	2.303
483.44	2.617
483.65	2.138
483.85	2.854
484.06	4.333
484.27	3.030
484.48	3.907
484.69	4.541
484.90	3.550
485.11	4.561
485.32	4.618
485.53	4.628
485.73	5.158
485.94	6.752
486.15	4.963
486.36	6.770
486.57	7.115
486.78	6.692
486.99	7.736
487.20	6.687
487.41	7.601
487.61	9.376
487.82	11.088
488.03	10.670
488.24	9.499
488.45	12.639
488.66	12.448
488.87	13.802
489.08	12.699
489.28	16.580
489.49	16.461
489.70	16.239
489.91	16.908
490.12	16.914
490.33	20.325
490.54	21.427
490.74	22.947
490.95	23.090
491.16	24.509
491.37	24.517
491.58	27.090
491.79	27.266
492.00	28.079
492.20	28.724
492.41	27.746
492.62	28.235
492.83	30.404
493.04	30.895
493.25	30.647
493.45	32.841
493.66	32.452
493.87	32.892
494.08	30.533
494.29	32.711
494.50	33.026
494.70	34.218
494.91	35.445
495.12	37.418
495.33	38.938
495.54	39.776
495.75	39.592
495.95	41.235
496.16	41.974
496.37	41.334
496.58	42.701
496.79	42.314
496.99	40.985
497.20	44.267
497.41	43.666
497.62	43.770
497.83	42.321
498.04	41.615
498.24	43.257
498.45	44.508
498.66	44.007
498.87	44.508
499.08	43.288
499.28	41.889
499.49	41.823
499.70	44.138
499.91	41.832
500.12	43.702
500.32	43.249
500.53	46.562
500.74	43.988
500.95	46.429
501.15	45.337
501.36	44.752
501.57	44.442
501.78	45.147
501.99	46.843
502.19	47.764
502.40	47.746
502.61	47.925
502.82	46.857
503.02	46.007
503.23	45.669
503.44	44.948
503.65	43.202
503.86	43.552
504.06	44.321
504.27	43.829
504.48	43.850
504.69	44.229
504.89	45.108
505.10	46.405
505.31	46.844
505.52	46.509
505.72	48.339
505.93	48.250
506.14	45.389
506.35	43.646
506.55	42.633
506.76	41.677
506.97	41.280
507.18	42.917
507.38	43.471
507.59	43.355
507.80	42.102
508.01	43.344
508.21	43.681
508.42	45.065
508.63	45.726
508.84	45.998
509.04	48.667
509.25	48.235
509.46	49.028
509.67	50.678
509.87	52.241
510.08	54.777
510.29	56.816
510.49	57.162
510.70	59.156
510.91	58.316
511.12	60.550
511.32	61.727
511.53	60.764
511.74	61.942
511.94	60.929
512.15	61.533
512.36	61.979
512.57	60.561
512.77	64.324
512.98	63.084
513.19	64.961
513.39	64.291
513.60	67.579
513.81	66.955
514.01	67.870
514.22	68.775
514.43	70.205
514.64	70.561
514.84	73.970
515.05	72.209
515.26	74.390
515.46	70.173
515.67	70.022
515.88	69.712
516.08	68.538
516.29	70.703
516.50	72.162
516.70	74.287
516.91	74.700
517.12	73.370
517.32	75.225
517.53	73.202
517.74	74.751
517.95	72.560
518.15	72.820
518.36	71.660
518.57	69.229
518.77	70.380
518.98	72.668
519.19	74.729
519.39	75.897
519.60	78.558
519.80	78.485
520.01	77.342
520.22	76.466
520.42	79.147
520.63	81.917
520.84	81.977
521.04	77.002
521.25	75.419
521.46	73.968
521.66	74.374
521.87	76.748
522.08	80.565
522.28	80.997
522.49	79.652
522.70	80.362
522.90	80.316
523.11	82.136
523.31	86.414
523.52	85.416
523.73	86.308
523.93	85.409
524.14	84.287
524.35	83.599
524.55	86.078
524.76	84.995
524.97	84.595
525.17	86.124
525.38	84.720
525.58	85.659
525.79	82.871
526.00	83.996
526.20	86.338
526.41	86.346
526.61	85.136
526.82	83.061
527.03	86.132
527.23	83.275
527.44	82.327
527.64	81.084
527.85	80.827
528.06	83.128
528.26	80.675
528.47	81.076
528.68	78.853
528.88	78.478
529.09	78.810
529.29	83.233
529.50	82.356
529.70	81.013
529.91	79.199
530.12	78.758
530.32	78.981
530.53	79.154
530.73	81.292
530.94	82.344
531.15	84.661
531.35	86.764
531.56	82.869
531.76	82.299
531.97	81.369
532.17	79.332
532.38	77.551
532.59	77.253
532.79	76.811
533.00	76.102
533.20	75.232
533.41	75.179
533.61	75.792
533.82	76.210
534.03	77.804
534.23	76.507
534.44	78.409
534.64	80.502
534.85	80.063
535.05	78.851
535.26	80.027
535.46	76.646
535.67	76.463
535.88	75.026
536.08	73.573
536.29	72.240
536.49	70.243
536.70	71.705
536.90	70.487
537.11	71.458
537.31	73.420
537.52	73.370
537.72	74.269
537.93	72.267
538.13	72.420
538.34	74.631
538.55	72.778
538.75	72.738
538.96	68.892
539.16	66.738
539.37	64.739
539.57	62.116
539.78	61.204
539.98	58.454
540.19	58.595
540.39	56.528
540.60	55.573
540.80	53.033
541.01	49.583
541.21	47.104
541.42	46.322
541.62	43.054
541.83	41.582
542.03	38.309
542.24	35.892
542.44	32.331
542.65	28.423
542.85	26.317
543.06	25.135
543.26	23.483
543.47	21.579
543.67	20.213
543.88	18.917
544.08	17.406
544.29	14.872
544.49	13.810
544.70	12.956
544.90	12.027
545.11	11.146
545.31	10.649
545.52	10.076
545.72	10.407
545.93	8.963
546.13	7.906
546.34	7.324
546.54	6.321
546.75	6.435
546.95	5.300
547.15	5.579
547.36	4.993
547.56	3.643
547.77	3.550
547.97	3.191
548.18	3.137
548.38	2.962
548.59	2.327
548.79	2.781
549.00	2.097
549.20	2.443
549.41	2.305
549.61	1.841
549.81	1.639
550.02	1.420
550.22	1.613
550.43	1.571
550.63	1.587
550.84	1.240
551.04	1.339
551.25	1.603
551.45	1.574
551.65	1.403
551.86	1.321
552.06	1.812
552.27	1.435
552.47	0.855
552.68	1.078
552.88	0.870
553.08	0.882
553.29	1.392
553.49	1.181
553.70	0.749
553.90	1.277
554.11	0.645
554.31	1.742
554.51	0.852
554.72	0.856
554.92	0.839
555.13	0.893
555.33	1.115
555.53	0.914
555.74	0.445
555.94	0.700
556.15	0.868
556.35	0.810
556.56	0.674
556.76	0.479
556.96	0.481
557.17	0.927
557.37	0.862
557.58	0.386
557.78	0.744
557.98	0.794
558.19	0.186
558.39	0.906
558.59	0.476
558.80	0.758
559.00	0.820
559.21	0.576
559.41	0.420
559.61	0.654
559.82	0.652
560.02	1.156
560.23	0.307
560.43	0.314
560.63	0.679
560.84	0.631
561.04	0.633
561.24	0.636
561.45	0.313
561.65	0.821
561.85	0.801
562.06	0.453
562.26	1.003
562.47	0.659
562.67	0.776
562.87	0.518
563.08	0.614
563.28	0.595
563.48	0.367
563.69	0.668
563.89	0.570
564.09	0.427
564.30	0.800
564.50	0.544
564.70	0.600
564.91	0.248
565.11	0.795
565.31	1.073
565.52	0.482
565.72	0.625
565.92	0.708
566.13	0.680
566.33	0.711
566.53	0.815
566.74	1.038
566.94	0.650
567.14	0.867
567.35	0.733
567.55	0.664
567.75	0.935
567.96	1.479
568.16	1.544
568.36	1.856
568.57	1.987
568.77	2.538
568.97	2.206
569.18	2.701
569.38	2.998
569.58	3.263
569.79	3.618
569.99	4.484
570.19	4.150
570.39	5.524
570.60	5.736
570.80	5.956
571.00	6.928
571.21	6.932
571.41	8.032
571.61	9.024
571.82	9.601
572.02	10.287
572.22	10.466
572.42	11.361
572.63	11.754
572.83	12.622
573.03	13.888
573.24	14.173
573.44	14.621
573.64	15.692
573.84	15.647
574.05	17.289
574.25	17.489
574.45	18.337
574.66	19.320
574.86	20.555
575.06	20.344
575.26	21.246
575.47	21.425
575.67	20.857
575.87	21.198
576.07	22.269
576.28	22.658
576.48	22.977
576.68	23.873
576.88	24.529
577.09	25.652
577.29	26.168
577.49	27.658
577.69	27.718
577.90	27.464
578.10	28.107
578.30	28.746
578.50	27.464
578.71	28.092
578.91	28.692
579.11	29.794
579.31	30.901
579.52	33.187
579.72	34.276
579.92	32.685
580.12	32.596
580.33	31.640
580.53	32.506
580.73	32.067
580.93	31.933
581.13	32.694
581.34	33.081
581.54	34.689
581.74	36.390
581.94	35.941
582.15	35.235
582.35	34.527
582.55	34.904
582.75	34.462
582.95	35.234
583.16	35.373
583.36	35.649
583.56	35.408
583.76	34.515
583.96	36.038
584.17	36.341
584.37	36.954
584.57	37.904
584.77	36.891
584.97	37.086
585.18	35.231
585.38	34.998
585.58	34.028
585.78	35.654
585.98	37.731
586.19	39.259
586.39	40.410
586.59	42.314
586.79	39.809
586.99	39.154
587.20	38.568
587.40	37.830
587.60	38.117
587.80	37.332
588.00	38.493
588.20	38.320
588.41	40.577
588.61	40.670
588.81	42.000
589.01	39.802
589.21	40.093
589.41	40.532
589.62	39.992
589.82	39.480
590.02	39.547
590.22	39.340
590.42	40.916
590.62	41.473
590.83	41.084
591.03	41.278
591.23	42.487
591.43	42.581
591.63	43.864
591.83	43.344
592.03	42.162
592.24	41.325
592.44	41.599
592.64	41.181
592.84	41.140
593.04	40.746
593.24	41.709
593.44	42.594
593.65	43.363
593.85	44.135
594.05	44.706
594.25	44.647
594.45	45.417
594.65	45.130
594.85	43.940
595.06	41.102
595.26	40.144
595.46	39.718
595.66	39.733
595.86	40.525
596.06	42.844
596.26	44.399
596.46	46.636
596.66	47.969
596.87	50.201
597.07	50.989
597.27	52.048
597.47	52.924
597.67	54.756
597.87	54.481
598.07	54.539
598.27	56.179
598.47	55.413
598.67	57.077
598.88	58.045
599.08	57.974
599.28	57.591
599.48	58.381
599.68	58.923
599.88	59.816
600.08	61.221
600.28	61.785
600.48	62.741
600.68	62.485
600.88	63.726
601.09	62.910
601.29	64.609
601.49	65.825
601.69	65.389
601.89	65.064
602.09	65.605
602.29	66.354
602.49	66.454
602.69	65.503
602.89	63.546
603.09	62.182
603.29	60.608
603.49	60.819
603.69	58.566
603.90	57.491
604.10	57.994
604.30	57.607
604.50	60.604
604.70	62.355
604.90	61.923
605.10	63.644
605.30	65.911
605.50	67.566
605.70	69.075
605.90	68.565
606.10	69.581
606.30	67.847
606.50	68.224
606.70	68.501
606.90	68.279
607.10	67.520
607.30	67.495
607.50	68.544
607.70	68.019
607.90	67.895
608.10	67.747
608.30	67.540
608.50	65.615
608.70	64.183
608.90	62.147
609.11	60.922
609.31	60.824
609.51	61.037
609.71	61.105
609.91	61.702
610.11	61.482
610.31	63.949
610.51	66.845
610.71	70.079
610.91	70.483
611.11	71.788
611.31	70.376
611.51	69.181
611.71	67.774
611.91	66.693
612.11	67.543
612.31	67.235
612.51	67.243
612.71	66.805
612.91	67.737
613.11	67.432
613.31	67.476
613.51	69.920
613.71	72.191
613.91	74.669
614.11	75.670
614.31	77.036
614.50	76.609
614.70	78.485
614.90	76.310
615.10	78.103
615.30	76.076
615.50	74.844
615.70	74.145
615.90	72.675
616.10	73.909
616.30	73.966
616.50	74.632
616.70	76.488
616.90	76.991
617.10	77.963
617.30	77.494
617.50	76.163
617.70	75.323
617.90	72.672
618.10	72.651
618.30	72.246
618.50	70.680
618.70	70.218
618.90	69.668
619.10	69.337
619.30	71.337
619.49	71.164
619.69	70.283
619.89	67.176
620.09	64.584
620.29	62.883
620.49	61.709
620.69	61.792
620.89	62.266
621.09	60.791
621.29	59.679
621.49	56.764
621.69	56.050
621.89	55.418
622.09	54.026
622.29	53.529
622.48	53.017
622.68	52.310
622.88	51.339
623.08	49.111
623.28	46.982
623.48	44.406
623.68	42.674
623.88	42.571
624.08	42.616
624.28	42.221
624.48	42.379
624.67	42.101
624.87	41.714
625.07	41.892
625.27	40.965
625.47	39.062
625.67	37.909
625.87	37.053
626.07	36.101
626.27	34.948
626.47	33.332
626.66	31.469
626.86	30.057
627.06	28.808
627.26	27.380
627.46	26.452
627.66	26.180
627.86	25.325
628.06	23.091
628.25	21.838
628.45	19.022
628.65	18.392
628.85	17.439
629.05	16.324
629.25	14.699
629.45	14.332
629.65	12.985
629.84	11.363
630.04	10.358
630.24	8.969
630.44	8.502
630.64	7.256
630.84	6.841
631.04	5.942
631.23	5.391
631.43	4.259
631.63	3.818
631.83	3.328
632.03	2.894
632.23	2.378
632.42	1.964
632.62	1.636
632.82	1.616
633.02	1.320
633.22	1.031
633.42	1.076
633.62	0.893
633.81	0.918
634.01	0.777
634.21	0.811
634.41	0.834
634.61	0.445
634.80	0.420
635.00	0.696
635.20	0.522
635.40	0.478
635.60	0.450
635.80	0.511
635.99	0.597
636.19	0.419
636.39	0.272
636.59	0.524
636.79	0.516
636.98	0.516
637.18	0.416
637.38	0.349
637.58	0.608
637.78	0.282
637.97	0.536
638.17	0.559
638.37	0.348
638.57	0.431
638.77	0.224
638.96	0.383
639.16	0.398
639.36	0.243
639.56	0.424
639.76	0.405
639.95	0.410
640.15	0.287
640.35	0.353
640.55	0.086
640.75	0.281
640.94	0.495
641.14	0.121
641.34	0.207
641.54	0.279
641.73	0.166
641.93	0.070
642.13	0.332
642.33	0.226
642.53	0.103
642.72	0.254
642.92	0.264
643.12	0.280
643.32	0.495
643.51	0.117
643.71	0.165
643.91	0.379
644.11	0.225
644.30	0.313
644.50	0.108
644.70	-0.030
644.90	-0.004
645.09	0.186
645.29	0.276
645.49	0.004
645.69	0.202
645.88	0.202
646.08	-0.004
646.28	0.064
646.48	0.315
646.67	0.017
646.87	0.236
647.07	0.150
647.26	0.039
647.46	0.113
647.66	-0.175
647.86	0.027
648.05	0.222
648.25	0.113
648.45	-0.059
648.65	0.119
648.84	0.387
649.04	0.045
649.24	0.143
649.43	0.053
649.63	0.120
649.83	-0.106
650.03	0.039
650.22	0.195
650.42	0.062
650.62	0.089
650.81	0.186
651.01	0.009
651.21	0.241
651.40	-0.116
651.60	0.210
651.80	0.103
652.00	0.060
652.19	-0.082
652.39	0.160
652.59	0.138
652.78	-0.138
652.98	0.161
653.18	0.021
653.37	0.207
653.57	0.037
653.77	0.083
653.96	0.271
654.16	-0.009
654.36	0.009
654.55	0.035
654.75	0.180
654.95	0.078
655.14	0.009
655.34	0.009
655.54	0.017
655.73	0.112
655.93	0.132
656.13	-0.008
656.32	0.000
656.52	0.085
656.72	0.110
656.91	0.115
657.11	0.021
657.31	-0.120
657.50	-0.039
657.70	-0.070
657.90	0.004
658.09	0.119
658.29	0.159
658.49	-0.234
658.68	-0.036
658.88	-0.179
659.07	0.145
659.27	-0.032
659.47	0.077
659.66	0.068
659.86	-0.066
660.06	0.174
660.25	-0.064
660.45	-0.172
660.64	0.129
660.84	0.021
661.04	-0.150
661.23	0.062
661.43	0.100
661.63	-0.067
661.82	0.004
662.02	0.076
662.21	0.216
662.41	0.081
662.61	0.051
662.80	0.017
663.00	0.111
663.19	0.145
663.39	0.084
663.59	-0.081
663.78	0.155
663.98	-0.026
664.17	0.062
664.37	-0.156
664.57	-0.065
664.76	-0.149
664.96	0.066
665.15	0.048
665.35	-0.032
665.55	0.004
665.74	-0.016
665.94	0.088
666.13	0.044
666.33	-0.069
666.53	-0.041
666.72	0.108
666.92	-0.117
667.11	0.336
667.31	-0.059
667.50	-0.047
667.70	0.047
667.90	-0.078
668.09	0.147
668.29	0.118
668.48	0.022
668.68	0.092
668.87	-0.170
669.07	0.060
669.26	0.068
669.46	0.102
669.66	-0.191
669.85	0.171
670.05	-0.051
670.24	0.009
670.44	0.093
670.63	0.021
670.83	-0.004
671.02	0.050
671.22	0.074
671.42	-0.101
671.61	0.009
671.81	-0.162
672.00	0.030
672.20	0.206
672.39	-0.083
672.59	0.045
672.78	-0.070
672.98	-0.288
673.17	-0.237
673.37	-0.144
673.56	0.236
673.76	0.021
673.95	-0.080
674.15	-0.133
674.34	0.066
674.54	0.012
674.73	-0.111
674.93	-0.028
675.13	-0.072
675.32	-0.045
675.52	-0.110
675.71	-0.054
675.91	-0.127
676.10	0.024
676.30	-0.084
676.49	-0.060
676.69	0.044
676.88	-0.135
677.08	-0.259
677.27	0.017
677.47	-0.140
677.66	0.004
677.86	0.216
678.05	-0.068
678.24	-0.112
678.44	-0.039
678.63	-0.091
678.83	-0.115
679.02	0.012
679.22	0.073
679.41	0.004
679.61	-0.025
679.80	-0.155
680.00	0.082
680.19	-0.043
680.39	-0.013
680.58	0.000
680.78	0.051
680.97	-0.008
681.17	-0.117
681.36	-0.109
681.56	-0.133
681.75	-0.021
681.94	-0.089
682.14	-0.162
682.33	-0.025
682.53	-0.129
682.72	-0.033
682.92	0.049
683.11	-0.134
683.31	-0.097
683.50	-0.032
683.69	0.109
683.89	0.184
684.08	-0.283
684.28	-0.125
684.47	-0.155
684.67	-0.152
684.86	-0.033
685.06	-0.160
685.25	-0.280
685.44	0.041
685.64	-0.045
685.83	0.004
686.03	-0.093
686.22	0.100
686.42	-0.073
686.61	-0.037
686.80	-0.075
687.00	-0.100
687.19	0.029
687.39	-0.046
687.58	0.008
687.77	0.175
687.97	-0.112
688.16	0.072
688.36	-0.041
688.55	-0.037
688.74	0.066
688.94	-0.168
689.13	-0.121
689.33	-0.072
689.52	-0.240
689.71	-0.114
689.91	-0.004
690.10	-0.100
690.30	-0.032
690.49	-0.207
690.68	-0.008
690.88	-0.042
691.07	0.004
691.27	-0.175
691.46	-0.086
691.65	-0.087
691.85	-0.231
692.04	-0.031
692.23	0.018
692.43	-0.134
692.62	-0.071
692.82	0.087
693.01	-0.177
693.20	-0.174
693.40	-0.049
693.59	-0.056
693.78	-0.056
693.98	-0.167
694.17	0.032
694.36	-0.235
694.56	-0.268
694.75	-0.089
694.94	-0.040
695.14	-0.098
695.33	-0.126
695.53	-0.130
695.72	-0.114
695.91	-0.098
696.11	-0.153
696.30	-0.255
696.49	-0.047
696.69	-0.157
696.88	-0.063
697.07	-0.008
697.27	-0.234
697.46	-0.230
697.65	0.101
697.85	0.036
698.04	-0.008
698.23	0.008
698.43	-0.073
698.62	-0.232
698.81	-0.125
699.01	-0.254
699.20	0.091
699.39	-0.175
699.58	-0.009
699.78	-0.143
699.97	-0.146
700.16	-0.013
700.36	-0.094
700.55	-0.017
700.74	-0.041
700.94	0.228
701.13	0.038
701.32	0.083
701.52	0.012
701.71	-0.232
701.90	-0.274
702.09	-0.127
702.29	-0.086
702.48	0.004
702.67	-0.113
702.87	-0.164
703.06	-0.264
703.25	0.000
703.44	-0.089
703.64	-0.045
703.83	0.021
704.02	-0.033
704.22	-0.300
704.41	0.061
704.60	-0.097
704.79	-0.053
704.99	0.027
705.18	-0.065
705.37	-0.074
705.56	0.081
705.76	0.042
705.95	0.058
706.14	-0.175
706.33	-0.245
706.53	-0.055
706.72	0.033
706.91	-0.105
707.11	0.051
707.30	-0.013
707.49	0.150
707.68	-0.214
707.88	-0.109
708.07	-0.070
708.26	0.000
708.45	-0.004
708.64	0.004
708.84	-0.042
709.03	0.013
709.22	0.154
709.41	-0.025
709.61	-0.185
709.80	-0.172
709.99	-0.140
710.18	0.004
710.38	-0.277
710.57	0.048
710.76	0.004
710.95	-0.086
711.14	-0.075
711.34	0.047
711.53	-0.025
711.72	-0.021
711.91	-0.071
712.11	0.100
712.30	0.123
712.49	0.090
712.68	0.060
712.87	0.013
713.07	0.202
713.26	-0.207
713.45	-0.131
713.64	-0.049
713.83	0.104
714.03	0.061
714.22	-0.043
714.41	-0.004
714.60	-0.112
714.79	0.035
714.99	0.136
715.18	0.044
715.37	0.088
715.56	0.058
715.75	0.129
715.94	0.206
716.14	-0.099
716.33	-0.049
716.52	-0.077
716.71	0.142
716.90	0.163
717.10	-0.027
717.29	0.152
717.48	-0.094
717.67	0.018
717.86	0.142
718.05	-0.115
718.24	0.026
718.44	-0.080
718.63	0.049
718.82	0.027
719.01	-0.195
719.20	0.075
719.39	-0.280
719.59	-0.203
719.78	0.118
719.97	0.009
720.16	-0.019
720.35	-0.145
720.54	0.097
720.73	-0.070
720.93	0.276
721.12	-0.112
721.31	0.200
721.50	0.121
721.69	-0.100
721.88	0.086
722.07	0.053
722.27	0.098
722.46	-0.308
722.65	0.175
722.84	0.120
723.03	0.191
723.22	0.199
723.41	0.390
723.60	0.182
723.79	0.240
723.99	0.129
724.18	0.298
724.37	0.272
724.56	0.454
724.75	0.350
724.94	0.198
725.13	0.216
725.32	0.204
725.51	0.209
725.71	0.127
725.90	0.171
726.09	0.378
726.28	0.228
726.47	0.272
726.66	0.307
726.85	0.231
727.04	0.407
727.23	0.360
727.42	0.279
727.61	0.209
727.81	0.434
728.00	0.390
728.19	0.086
728.38	0.137
728.57	0.296
728.76	0.259
728.95	0.307
729.14	0.231
729.33	0.436
729.52	0.578
729.71	0.221
729.90	0.266
730.09	0.046
730.28	0.136
730.48	0.224
730.67	0.363
730.86	0.153
731.05	0.230
731.24	0.417
731.43	0.394
731.62	0.491
731.81	0.576
732.00	0.384
732.19	0.533
732.38	0.487
732.57	0.663
732.76	0.588
732.95	0.364
733.14	0.790
733.33	0.720
733.52	0.975
733.71	0.885
733.90	0.654
734.09	0.833
734.28	0.707
734.47	0.919
734.66	0.892
734.85	0.958
735.04	1.199
735.23	1.053
735.42	1.249
735.61	1.493
735.81	1.404
736.00	1.225
736.19	1.231
736.38	1.585
736.57	1.531
736.76	1.451
736.95	1.468
737.14	1.662
737.33	1.847
737.52	1.431
737.71	1.641
737.90	1.867
738.09	1.517
738.28	1.673
738.47	1.659
738.66	1.768
738.85	1.522
739.04	1.663
739.22	1.725
739.41	1.985
739.60	1.712
739.79	1.877
739.98	1.705
740.17	1.780
740.36	1.834
740.55	1.756
740.74	1.798
740.93	1.708
741.12	1.476
741.31	1.965
741.50	1.957
741.69	2.056
741.88	1.971
742.07	2.008
742.26	2.185
742.45	2.220
742.64	2.335
742.83	2.699
743.02	2.708
743.21	2.424
743.40	3.212
743.59	3.608
743.78	3.991
743.97	3.840
744.16	4.603
744.34	5.404
744.53	5.735
744.72	6.063
744.91	6.695
745.10	6.677
745.29	7.080
745.48	7.532
745.67	7.266
745.86	8.141
746.05	8.327
746.24	8.496
746.43	9.162
746.62	9.742
746.81	9.660
747.00	10.129
747.18	10.660
747.37	10.813
747.56	11.549
747.75	11.772
747.94	12.442
748.13	12.941
748.32	13.041
748.51	14.046
748.70	13.820
748.89	14.311
749.08	14.589
749.26	15.277
749.45	14.985
749.64	16.151
749.83	16.170
750.02	17.700
750.21	17.105
750.40	17.941
750.59	18.704
750.78	19.045
750.96	20.117
751.15	20.234
751.34	20.541
751.53	20.682
751.72	20.528
751.91	20.290
752.10	20.761
752.29	20.665
752.47	21.254
752.66	22.310
752.85	23.265
753.04	23.625
753.23	24.543
753.42	24.380
753.61	24.631
753.80	25.253
753.98	24.374
754.17	24.140
754.36	25.657
754.55	24.618
754.74	25.789
754.93	26.056
755.12	26.232
755.30	26.896
755.49	27.727
755.68	27.188
755.87	25.981
756.06	25.237
756.25	25.430
756.43	25.850
756.62	26.385
756.81	26.023
757.00	26.198
757.19	26.124
757.38	27.694
757.56	29.250
757.75	28.254
757.94	29.455
758.13	28.512
758.32	29.432
758.51	29.228
758.69	28.366
758.88	28.617
759.07	29.371
759.26	29.286
759.45	28.877
759.63	30.425
759.82	31.172
760.01	30.641
760.20	31.035
760.39	31.707
760.57	32.353
760.76	33.081
760.95	33.556
761.14	32.547
761.33	32.919
761.51	33.526
761.70	32.475
761.89	32.521
762.08	32.682
762.27	33.380
762.45	32.147
762.64	31.478
762.83	32.449
763.02	32.141
763.21	32.627
763.39	33.024
763.58	32.160
763.77	31.714
763.96	32.401
764.14	31.695
764.33	30.120
764.52	31.232
764.71	29.538
764.89	29.558
765.08	27.993
765.27	25.804
765.46	25.819
765.65	25.749
765.83	24.408
766.02	23.869
766.21	23.778
766.40	23.223
766.58	23.122
766.77	23.668
766.96	24.088
767.15	23.076
767.33	22.667
767.52	22.819
767.71	22.642
767.90	22.156
768.08	21.987
768.27	20.051
768.46	19.929
768.64	19.883
768.83	20.609
769.02	20.325
769.21	18.027
769.39	18.185
769.58	17.234
769.77	17.469
769.96	17.161
770.14	16.689
770.33	16.605
770.52	16.111
770.70	15.455
770.89	15.288
771.08	14.405
771.27	14.893
771.45	13.799
771.64	14.184
771.83	14.385
772.01	14.046
772.20	14.919
772.39	14.621
772.57	15.026
772.76	15.174
772.95	16.420
773.14	16.104
773.32	16.328
773.51	16.212
773.70	17.283
773.88	16.676
774.07	17.223
774.26	17.103
774.44	18.173
774.63	18.013
774.82	17.353
775.00	18.605
775.19	18.916
775.38	18.637
775.56	17.248
775.75	19.098
775.94	18.818
776.12	18.935
776.31	18.925
776.50	18.543
776.68	20.628
776.87	19.835
777.06	19.216
777.24	18.570
777.43	20.538
777.62	19.105
777.80	18.920
777.99	18.803
778.18	20.213
778.36	19.126
778.55	18.989
778.74	19.856
778.92	18.240
779.11	20.153
779.29	18.963
779.48	20.000
779.67	18.553
779.85	19.827
780.04	18.500
780.23	18.876
780.41	16.836
780.60	17.166
780.79	16.311
780.97	16.286
781.16	15.064
781.34	14.113
781.53	15.326
781.72	15.200
781.90	13.520
782.09	14.599
782.28	15.116
782.46	14.359
782.65	13.866
782.83	14.943
783.02	12.944
783.21	15.243
783.39	15.484
783.58	14.432
783.76	14.859
783.95	13.730
784.14	14.368
784.32	14.270
784.51	13.910
784.69	14.607
784.88	15.791
785.06	14.322
785.25	14.886
785.44	15.799
785.62	15.668
785.81	17.718
785.99	16.886
786.18	16.691
786.37	17.458
786.55	18.957
786.74	18.713
786.92	20.981
787.11	22.046
787.29	21.717
787.48	22.284
787.67	24.788
787.85	25.331
788.04	25.957
788.22	24.822
788.41	24.710
788.59	26.199
788.78	26.085
788.96	26.030
789.15	28.263
789.34	27.900
789.52	27.949
789.71	29.035
789.89	29.945
790.08	28.157
790.26	27.604
790.45	26.889
790.63	27.607
790.82	27.620
791.00	27.864
791.19	28.028
791.38	29.243
791.56	30.786
791.75	29.171
791.93	29.990
792.12	30.712
792.30	29.660
792.49	29.827
792.67	29.864
792.86	29.652
793.04	30.200
793.23	30.052
793.41	30.031
793.60	31.032
793.78	30.975
793.97	30.148
794.15	32.261
794.34	31.137
794.52	30.603
794.71	29.915
794.89	27.573
795.08	26.588
795.26	26.945
795.45	26.609
795.63	26.843
795.82	26.525
796.00	25.197
796.19	25.620
796.37	26.062
796.56	27.568
796.74	28.006
796.93	28.321
797.11	27.728
797.30	29.308
797.48	29.154
797.67	29.790
797.85	30.195
798.04	29.358
798.22	30.094
798.41	30.446
798.59	32.073
798.77	32.487
798.96	31.902
799.14	33.112
799.33	34.966
799.51	35.417
799.70	35.294
799.88	35.886
800.07	37.224
800.25	36.881
800.44	37.914
800.62	38.643
800.80	40.509
800.99	41.133
801.17	42.690
801.36	41.242
801.54	41.953
801.73	42.328
801.91	42.859
802.10	42.350
802.28	44.186
802.46	45.269
802.65	44.580
802.83	46.245
803.02	45.478
803.20	47.652
803.39	48.734
803.57	50.477
803.75	50.628
803.94	52.193
804.12	54.544
804.31	54.013
804.49	57.440
804.67	58.337
804.86	58.962
805.04	60.663
805.23	62.182
805.41	63.295
805.59	61.045
805.78	60.990
805.96	59.168
806.15	56.785
806.33	58.229
806.51	57.875
806.70	55.161
806.88	55.831
807.07	56.728
807.25	57.775
807.43	56.494
807.62	57.090
807.80	55.223
807.99	54.418
808.17	53.473
808.35	51.598
808.54	52.907
808.72	51.255
808.90	50.068
809.09	50.338
809.27	48.007
809.46	48.866
809.64	46.746
809.82	47.265
810.01	48.031
810.19	48.021
810.37	44.411
810.56	44.484
810.74	45.460
810.92	43.232
811.11	42.840
811.29	43.014
811.48	43.670
811.66	43.638
811.84	43.660
812.03	43.483
812.21	42.321
812.39	41.356
812.58	40.769
812.76	39.861
812.94	38.415
813.13	39.214
813.31	38.999
813.49	37.930
813.68	38.769
813.86	37.607
814.04	36.662
814.23	36.855
814.41	35.256
814.59	34.948
814.78	36.407
814.96	36.593
815.14	36.329
815.33	36.024
815.51	34.941
815.69	34.993
815.87	35.348
816.06	35.220
816.24	37.731
816.42	38.234
816.61	39.198
816.79	39.990
816.97	39.376
817.16	40.073
817.34	40.953
817.52	39.183
817.70	39.617
817.89	39.368
818.07	41.445
818.25	40.789
818.44	40.177
818.62	40.229
818.80	40.053
818.98	39.243
819.17	39.978
819.35	41.049
819.53	39.672
819.72	40.980
819.90	42.761
820.08	42.026
820.26	40.803
820.45	42.692
820.63	41.627
820.81	42.817
820.99	43.204
821.18	40.039
821.36	42.516
821.54	38.345
821.73	40.763
821.91	41.575
822.09	39.988
822.27	37.937
822.46	40.440
822.64	38.955
822.82	39.270
823.00	40.394
823.19	43.595
823.37	41.283
823.55	42.743
823.73	43.771
823.91	45.696
824.10	44.151
824.28	46.249
824.46	48.695
824.64	46.416
824.83	47.458
825.01	45.116
825.19	45.403
825.37	45.122
825.56	44.219
825.74	42.534
825.92	41.983
826.10	39.518
826.28	39.062
826.47	38.788
826.65	36.677
826.83	37.102
827.01	38.282
827.19	38.284
827.38	38.087
827.56	37.309
827.74	41.027
827.92	40.471
828.10	42.225
828.29	41.734
828.47	43.497
828.65	43.125
828.83	43.555
829.01	42.131
829.20	44.422
829.38	45.123
829.56	45.720
829.74	43.431
829.92	45.369
830.10	44.523
830.29	45.209
830.47	43.198
830.65	45.086
830.83	43.869
831.01	44.683
831.20	44.183
831.38	43.846
831.56	41.807
831.74	43.692
831.92	44.015
832.10	46.602
832.29	48.324
832.47	46.115
832.65	47.718
832.83	47.379
833.01	47.832
833.19	46.357
833.37	44.222
833.56	46.458
833.74	46.802
833.92	46.874
834.10	44.003
834.28	43.797
834.46	44.141
834.64	43.054
834.83	43.423
835.01	42.591
835.19	43.051
835.37	44.069
835.55	43.415
835.73	41.733
835.91	43.454
836.09	43.635
836.28	43.277
836.46	44.451
836.64	42.991
836.82	43.005
837.00	40.343
837.18	42.368
837.36	44.005
837.54	43.395
837.72	44.488
837.91	44.259
838.09	47.481
838.27	47.365
838.45	48.162
838.63	51.672
838.81	51.184
838.99	47.980
839.17	49.527
839.35	52.071
839.53	53.318
839.72	52.157
839.90	49.381
840.08	50.862
840.26	49.983
840.44	52.181
840.62	52.054
840.80	52.240
840.98	54.372
841.16	52.349
841.34	52.325
841.52	51.857
841.70	51.802
841.89	52.000
842.07	53.772
842.25	52.034
842.43	51.024
842.61	51.773
842.79	54.828
842.97	53.485
843.15	53.390
843.33	54.652
843.51	52.496
843.69	55.436
843.87	57.675
844.05	55.556
844.23	55.832
844.41	56.573
844.59	57.378
844.77	55.694
844.95	56.901
845.13	56.545
845.31	55.527
845.50	58.381
845.68	56.192
845.86	56.561
846.04	56.193
846.22	53.843
846.40	57.111
846.58	55.503
846.76	57.649
846.94	58.136
847.12	59.861
847.30	58.405
847.48	57.315
847.66	56.797
847.84	57.630
848.02	56.273
848.20	56.955
848.38	55.911
848.56	56.447
848.74	58.566
848.92	57.200
849.10	57.889
849.28	60.513
849.46	59.132
849.64	59.619
849.82	60.215
850.00	58.476
850.18	58.616
850.36	57.948
850.54	57.445
850.72	58.965
850.90	58.828
851.08	59.245
851.26	61.996
851.44	61.754
851.62	60.383
851.80	62.847
851.98	61.410
852.16	63.434
852.34	63.888
852.52	60.805
852.70	60.008
852.87	58.676
853.05	58.061
853.23	55.040
853.41	56.755
853.59	55.765
853.77	54.900
853.95	53.878
854.13	53.996
854.31	53.932
854.49	47.041
854.67	48.770
854.85	50.057
855.03	48.469
855.21	47.267
855.39	46.877
855.57	48.015
855.75	48.301
855.93	47.883
856.11	45.578
856.28	50.496
856.46	51.316
856.64	50.590
856.82	49.041
857.00	49.876
857.18	46.123
857.36	43.989
857.54	48.401
857.72	48.681
857.90	49.003
858.08	48.012
858.26	46.070
858.44	47.356
858.61	47.786
858.79	50.780
858.97	49.789
859.15	48.489
859.33	51.150
859.51	47.730
859.69	46.191
859.87	48.335
860.05	45.308
860.23	47.621
860.40	49.082
860.58	46.272
860.76	46.522
860.94	47.751
861.12	48.170
861.30	49.466
861.48	47.353
861.66	51.643
861.84	50.326
862.01	53.320
862.19	52.582
862.37	50.815
862.55	50.327
862.73	52.312
862.91	51.399
863.09	50.804
863.27	48.208
863.44	50.406
863.62	47.249
863.80	48.094
863.98	47.743
864.16	47.595
864.34	48.570
864.52	47.407
864.69	46.343
864.87	46.529
865.05	46.145
865.23	45.294
865.41	44.387
865.59	44.457
865.76	41.170
865.94	41.224
866.12	38.945
866.30	39.602
866.48	40.770
866.66	36.721
866.83	38.511
867.01	38.839
867.19	38.069
867.37	34.028
867.55	34.877
867.73	32.142
867.90	32.170
868.08	32.443
868.26	33.242
868.44	33.711
868.62	34.127
868.79	35.176
868.97	35.657
869.15	35.623
869.33	36.892
869.51	38.138
869.69	35.747
869.86	37.228
870.04	38.067
870.22	35.603
870.40	37.268
870.57	37.066
870.75	36.219
870.93	37.146
871.11	33.783
871.29	36.990
871.46	33.368
871.64	38.326
871.82	36.272
872.00	37.954
872.18	39.499
872.35	37.045
872.53	37.048
872.71	37.244
872.89	36.318
873.06	37.238
873.24	37.106
873.42	34.904
873.60	38.625
873.77	41.116
873.95	38.180
874.13	37.947
874.31	35.978
874.49	37.247
874.66	37.085
874.84	37.345
875.02	37.827
875.20	42.156
875.37	40.968
875.55	41.675
875.73	43.952
875.91	41.939
876.08	44.778
876.26	45.770
876.44	47.370
876.61	49.657
876.79	48.019
876.97	46.664
877.15	47.560
877.32	49.343
877.50	48.730
877.68	48.120
877.86	48.924
878.03	47.166
878.21	49.020
878.39	51.186
878.56	49.265
878.74	50.016
878.92	51.572
879.10	50.456
879.27	49.319
879.45	49.753
879.63	51.303
879.80	52.871
879.98	53.453
880.16	51.044
880.34	52.496
880.51	50.288
880.69	52.887
880.87	51.374
881.04	50.570
881.22	49.532
881.40	49.288
881.57	48.226
881.75	49.893
881.93	52.755
882.10	50.893
882.28	53.718
882.46	49.822
882.63	50.704
882.81	49.859
882.99	49.408
883.16	47.950
883.34	47.273
883.52	45.176
883.69	45.650
883.87	45.385
884.05	46.311
884.22	44.973
884.40	42.325
884.58	44.835
884.75	44.134
884.93	44.299
885.11	43.571
885.28	44.668
885.46	46.744
885.64	46.930
885.81	45.819
885.99	47.930
886.17	49.050
886.34	50.071
886.52	48.322
886.70	50.335
886.87	47.119
887.05	48.646
887.22	49.053
887.40	45.537
887.58	45.795
887.75	47.622
887.93	47.191
888.11	46.995
888.28	46.310
888.46	47.935
888.63	45.194
888.81	45.477
888.99	44.696
889.16	46.633
889.34	47.744
889.51	46.823
889.69	49.606
889.87	49.140
890.04	51.018
890.22	49.968
890.39	49.694
890.57	49.865
890.75	51.197
890.92	48.870
891.10	51.151
891.27	50.210
891.45	51.402
891.63	49.610
891.80	51.251
891.98	51.954
892.15	50.977
892.33	51.250
892.51	52.943
892.68	49.851
892.86	49.431
893.03	47.758
893.21	47.206
893.38	49.395
893.56	46.052
893.74	47.941
893.91	50.189
894.09	47.962
894.26	44.336
894.44	45.362
894.61	44.109
894.79	43.399
894.96	41.423
895.14	42.025
895.32	39.663
895.49	42.579
895.67	40.487
895.84	41.502
896.02	39.960
896.19	40.981
896.37	40.440
896.54	40.757
896.72	43.923
896.89	43.272
897.07	41.071
897.25	43.333
897.42	43.555
897.60	42.414
897.77	43.534
897.95	43.330
898.12	43.752
898.30	42.390
898.47	46.489
898.65	43.780
898.82	44.847
899.00	45.666
899.17	46.414
899.35	48.111
899.52	47.094
899.70	45.631
899.87	46.389
900.05	45.856
900.22	44.575
900.40	46.241
900.57	44.066
900.75	46.770
900.92	50.859
901.10	48.261
901.27	48.106
901.45	47.774
901.62	48.411
901.80	47.368
901.97	46.300
902.15	46.753
902.32	48.012
902.50	46.958
902.67	49.694
902.85	49.500
903.02	48.431
903.20	49.468
903.37	50.988
903.54	49.473
903.72	46.130
903.89	49.032
904.07	47.804
904.24	49.187
904.42	48.625
904.59	46.716
904.77	48.029
904.94	46.447
905.12	48.675
905.29	46.699
905.47	47.063
905.64	42.461
905.81	44.222
905.99	49.057
906.16	48.910
906.34	50.233
906.51	48.198
906.69	48.349
906.86	47.132
907.03	47.519
907.21	49.959
907.38	46.548
907.56	44.683
907.73	43.224
907.91	47.267
908.08	44.945
908.25	43.822
908.43	45.586
908.60	42.771
908.78	45.486
908.95	43.265
909.13	43.902
909.30	43.887
909.47	43.771
909.65	39.399
909.82	39.644
910.00	39.761
910.17	39.917
910.34	41.041
910.52	41.268
910.69	40.622
910.87	39.877
911.04	42.711
911.21	41.772
911.39	38.278
911.56	38.172
911.73	38.370
911.91	41.122
912.08	38.803
912.26	39.409
912.43	42.158
912.60	41.948
912.78	42.404
912.95	43.165
913.13	42.593
913.30	42.379
913.47	47.658
913.65	46.790
913.82	43.824
913.99	43.054
914.17	42.910
914.34	40.395
914.51	39.445
914.69	41.735
914.86	43.694
915.03	41.051
915.21	41.431
915.38	42.936
915.56	44.749
915.73	46.200
915.90	43.463
916.08	47.629
916.25	45.922
916.42	42.827
916.60	47.499
916.77	46.857
916.94	43.124
917.12	45.371
917.29	44.691
917.46	46.283
917.64	43.076
917.81	43.923
917.98	43.715
918.16	42.231
918.33	43.983
918.50	43.810
918.67	40.268
918.85	44.159
919.02	45.268
919.19	45.606
919.37	46.093
919.54	46.919
919.71	43.902
919.89	46.697
920.06	49.031
920.23	45.939
920.41	45.375
920.58	46.909
920.75	47.393
920.92	48.198
921.10	46.667
921.27	44.084
921.44	46.222
921.62	48.851
921.79	45.354
921.96	45.295
922.13	48.270
922.31	44.689
922.48	47.743
922.65	48.551
922.82	46.077
923.00	45.752
923.17	47.925
923.34	50.353
923.52	46.826
923.69	45.841
923.86	47.592
924.03	50.263
924.21	48.652
924.38	48.799
924.55	52.067
924.72	49.075
924.90	53.836
925.07	48.981
925.24	54.385
925.41	57.196
925.59	54.314
925.76	50.138
925.93	58.456
926.10	54.705
926.28	54.585
926.45	51.724
926.62	50.951
926.79	48.990
926.96	44.663
927.14	51.232
927.31	48.961
927.48	48.389
927.65	46.552
927.83	47.644
928.00	44.252
928.17	50.781
928.34	46.170
928.51	53.829
928.69	49.754
928.86	53.769
929.03	49.964
929.20	52.039
929.37	52.651
929.55	48.239
929.72	53.338
929.89	49.372
930.06	56.245
930.23	49.527
930.41	52.230
930.58	53.157
930.75	55.075
930.92	54.809
931.09	54.939
931.27	51.128
931.44	53.966
931.61	52.841
931.78	56.787
931.95	53.411
932.12	56.391
932.30	49.694
932.47	52.393
932.64	52.808
932.81	51.926
932.98	54.692
933.16	52.398
933.33	50.798
933.50	57.664
933.67	54.335
933.84	51.085
934.01	53.826
934.18	49.169
934.36	54.943
934.53	54.278
934.70	53.606
934.87	51.090
935.04	53.642
935.21	54.588
935.38	52.474
935.56	52.715
935.73	47.662
935.90	55.000
936.07	55.204
936.24	54.565
936.41	60.470
936.58	52.763
936.76	56.090
936.93	55.145
937.10	61.359
937.27	60.596
937.44	60.347
937.61	63.242
937.78	62.954
937.95	54.386
938.13	56.326
938.30	61.209
938.47	47.546
938.64	51.685
938.81	54.808
938.98	53.432
939.15	47.000
939.32	57.388
939.49	41.720
939.66	51.410
939.84	51.621
940.01	54.697
940.18	49.320
940.35	44.228
940.52	43.936
940.69	45.790
940.86	43.127
941.03	44.458
941.20	44.053
941.37	43.195
941.54	44.338
941.71	34.943
941.89	42.393
942.06	36.848
942.23	41.038
942.40	45.977
942.57	44.569
942.74	47.074
942.91	41.804
943.08	45.685
943.25	44.136
943.42	44.803
943.59	46.003
943.76	40.756
943.93	48.022
944.10	48.280
944.27	39.142
944.44	37.080
944.61	41.265
944.79	46.479
944.96	44.725
945.13	41.069
945.30	47.967
945.47	44.932
945.64	46.245
945.81	40.997
945.98	39.448
946.15	41.555
946.32	43.255
946.49	51.396
946.66	43.779
946.83	38.187
947.00	44.338
947.17	47.415
947.34	44.541
947.51	47.167
947.68	53.785
947.85	52.252
948.02	51.071
948.19	47.695
948.36	60.406
948.53	57.785
948.70	65.233
948.87	59.442
949.04	50.445
949.21	54.455
949.38	54.252
949.55	59.370
949.72	58.155
949.89	52.656
950.06	56.614
950.23	57.912
950.40	56.053
950.57	61.622
950.74	66.254
950.91	66.912
951.08	67.247
951.25	64.259
951.42	68.242
951.59	61.302
951.76	64.848
951.93	66.547
952.10	60.145
952.27	59.649
952.44	62.653
952.61	67.742
952.77	65.085
952.94	60.163
953.11	54.667
953.28	65.660
953.45	63.008
953.62	52.813
953.79	53.889
953.96	50.391
954.13	55.747
954.30	64.315
954.47	58.584
954.64	65.192
954.81	60.563
954.98	52.670
955.15	60.200
955.32	56.415
955.49	62.818
955.65	64.200
955.82	66.395
955.99	60.071
956.16	68.442
956.33	59.443
956.50	65.370
956.67	59.155
956.84	59.176
957.01	64.358
957.18	67.197
957.35	56.855
957.52	65.462
957.68	70.089
957.85	74.043
958.02	63.910
958.19	76.829
958.36	75.829
958.53	76.823
958.70	75.161
958.87	61.074
959.04	73.846
959.21	54.185
959.37	88.571
959.54	73.333
959.71	65.640
959.88	74.403
960.05	72.209
960.22	74.029
960.39	62.560
960.56	64.254
960.72	57.380
960.89	59.236
961.06	61.667
961.23	62.585
961.40	57.065
961.57	57.639
961.74	56.917
961.90	57.576
962.07	59.705
962.24	52.662
962.41	63.355
962.58	51.923
962.75	57.741
962.92	55.991
963.08	55.730
963.25	53.796
963.42	61.151
963.59	56.144
963.76	57.562
963.93	46.560
964.10	58.140
964.26	52.720
964.43	47.113
964.60	60.235
964.77	58.102
964.94	60.377
965.10	51.860
965.27	48.284
965.44	56.036
965.61	59.511
965.78	48.636
965.95	46.778
966.11	53.687
966.28	48.199
966.45	45.856
966.62	51.202
966.79	43.122
966.95	45.249
967.12	46.396
967.29	45.125
967.46	36.878
967.63	47.447
967.79	48.807
967.96	43.363
968.13	45.614
968.30	43.307
968.47	40.417
968.63	43.923
968.80	39.679
968.97	49.886
969.14	43.960
969.31	41.667
969.47	32.443
969.64	40.281
969.81	32.770
969.98	38.480
970.14	39.913
970.31	35.000
970.48	25.223
970.65	49.176
970.81	41.146
970.98	34.261
971.15	25.157
971.32	34.222
971.48	23.297
971.65	30.997
971.82	33.860
971.99	39.418
972.15	35.154
972.32	29.343
972.49	40.299
972.66	30.804
972.82	32.280
972.99	29.882
973.16	33.120
973.33	33.412
973.49	10.579
973.66	23.810
973.83	43.367
974.00	34.910
974.16	41.818
974.33	34.637
974.50	33.816
974.67	25.679
974.83	42.615
975.00	27.273
975.17	38.851
975.33	39.953
975.50	35.484
975.67	42.627
975.84	33.761
976.00	46.588
976.17	31.294
976.34	39.698
976.50	35.083
976.67	38.532
976.84	31.888
977.00	37.589
977.17	28.732
977.34	39.713
977.50	37.802
977.67	36.758
977.84	37.249
978.01	31.152
978.17	41.562
978.34	46.650
978.51	37.530
978.67	41.972
978.84	31.724
979.01	34.670
979.17	40.632
979.34	35.492
979.51	36.500
979.67	37.379
979.84	46.556
980.01	37.130
980.17	28.736
980.34	38.021
980.51	46.420
980.67	34.805
980.84	38.969
981.01	38.889
981.17	34.314
981.34	30.105
981.50	41.106
981.67	42.184
981.84	38.386
982.00	35.309
982.17	29.262
982.34	43.224
982.50	45.935
982.67	43.152
982.84	33.178
983.00	40.470
983.17	40.826
983.33	42.444
983.50	41.031
983.67	40.088
983.83	45.434
984.00	36.538
984.17	32.403
984.33	41.000
984.50	40.381
984.66	40.464
984.83	36.966
985.00	40.444
985.16	37.468
985.33	41.591
985.49	28.875
985.66	34.396
985.83	37.295
985.99	45.756
986.16	30.333
986.32	40.161
986.49	37.783
986.66	42.825
986.82	38.428
986.99	40.559
987.15	37.383
987.32	40.330
987.49	38.009
987.65	42.657
987.82	42.010
987.98	38.967
988.15	53.944
988.31	43.972
988.48	39.336
988.65	52.910
988.81	45.414
988.98	37.081
989.14	44.313
989.31	50.593
989.47	47.596
989.64	39.414
989.80	42.019
989.97	38.528
990.14	46.170
990.30	49.760
990.47	48.301
990.63	35.731
990.80	46.804
990.96	35.714
991.13	34.598
991.29	37.530
991.46	46.081
991.62	41.628
991.79	46.347
991.95	43.115
992.12	40.136
992.29	36.992
992.45	43.807
992.62	42.825
992.78	46.541
992.95	45.933
993.11	45.861
993.28	47.922
993.44	41.794
993.61	43.776
993.77	56.806
993.94	38.673
994.10	51.899
994.27	44.010
994.43	47.046
994.60	51.750
994.76	40.185
994.93	44.419
995.09	47.978
995.26	47.087
995.42	46.229
995.59	46.966
995.75	47.685
995.92	51.294
996.08	38.353
996.25	44.444
996.41	42.157
996.58	48.630
996.74	45.011
996.91	41.514
997.07	40.244
997.23	41.667
997.40	34.437
997.56	44.393
997.73	44.500
997.89	36.018
998.06	35.903
998.22	34.152
998.39	42.857
998.55	44.573
998.72	41.822
998.88	50.500
999.05	44.965
999.21	37.232
999.37	52.660
999.54	47.980
999.70	36.324
999.87	46.231
1000.03	46.119
1000.20	48.798
1000.36	49.640
1000.52	37.238
1000.69	48.081
1000.85	37.797
1001.02	35.388
1001.18	40.535
1001.35	51.168
1001.51	35.412
1001.67	38.976
1001.84	37.342
1002.00	32.563
1002.17	48.853
1002.33	43.326
1002.50	44.921
1002.66	55.687
1002.82	48.995
1002.99	57.867
1003.15	55.890
1003.32	58.396
1003.48	41.627
1003.64	43.511
1003.81	59.551
1003.97	42.466
1004.14	69.668
1004.30	53.317
1004.46	67.624
1004.63	54.329
1004.79	54.474
1004.95	46.015
1005.12	56.868
1005.28	40.838
1005.45	45.853
1005.61	49.633
1005.77	60.591
1005.94	47.758
1006.10	46.851
1006.26	47.722
1006.43	44.787
1006.59	53.090
1006.76	45.119
1006.92	46.118
1007.08	62.201
1007.25	45.475
1007.41	35.731
1007.57	45.098
1007.74	42.065
1007.90	52.320
1008.06	56.510
1008.23	54.359
1008.39	45.607
1008.55	57.143
1008.72	48.130
1008.88	48.444
1009.04	50.108
1009.21	57.279
1009.37	55.000
1009.53	45.324
1009.70	54.301
1009.86	56.878
1010.02	49.886
1010.19	54.000
1010.35	45.723
1010.51	64.916
1010.68	56.566
1010.84	53.281
1011.00	53.333
1011.17	45.706
1011.33	57.457
1011.49	58.475
1011.66	50.256
1011.82	49.872
1011.98	62.840
1012.14	55.068
1012.31	48.968
1012.47	46.036
1012.63	55.460
1012.80	49.206
1012.96	41.444
1013.12	58.056
1013.29	37.396
1013.45	56.136
1013.61	47.287
1013.77	54.780
1013.94	48.825
1014.10	35.455
1014.26	59.406
1014.43	44.505
1014.59	51.902
1014.75	47.150
1014.91	46.453
1015.08	48.426
1015.24	38.372
1015.40	50.500
1015.56	40.263
1015.73	45.432
1015.89	47.312
1016.05	48.578
1016.21	48.843
1016.38	43.968
1016.54	50.292
1016.70	37.353
1016.86	51.724
1017.03	48.229
1017.19	55.112
1017.35	50.000
1017.51	52.329
1017.68	54.286
1017.84	48.941
1018.00	55.614
1018.16	39.167
1018.33	58.427
1018.49	66.032
1018.65	50.681
1018.81	62.080
1018.97	41.076
1019.14	53.678
1019.30	56.657
1019.46	64.605
1019.62	60.547
1019.79	67.398
1019.95	63.496
1020.11	52.960
1020.27	62.951
1020.43	54.035
1020.60	71.970
1020.76	90.637
1020.92	63.305
1021.08	51.645
1021.24	64.907
1021.41	66.000
1021.57	69.540
1021.73	71.148
1021.89	62.500
1022.05	73.868
1022.21	76.944
1022.38	53.714
1022.54	55.587
1022.70	74.667
1022.86	69.452
1023.02	73.623
1023.19	63.158
1023.35	70.418
1023.51	58.654
1023.67	77.616
1023.83	78.626
1023.99	58.099
1024.16	77.381
1024.32	71.197
1024.48	76.241
1024.64	58.940
1024.80	68.440
1024.96	77.160
1025.12	66.771
1025.29	80.919
1025.45	72.143
1025.61	62.258
1025.77	74.007
1025.93	74.845
1026.09	69.884
1026.26	75.338
1026.42	75.000
1026.58	75.087
1026.74	70.196
1026.90	58.006
1027.06	65.677
1027.22	80.201
1027.38	80.851
1027.55	87.864
1027.71	73.256
1027.87	77.627
1028.03	70.518
1028.19	67.797
1028.35	71.956
1028.51	66.883
1028.67	55.513
1028.83	74.892
1029.00	51.379
1029.16	80.938
1029.32	62.030
1029.48	64.062
1029.64	67.213
1029.80	66.260
1029.96	88.360
1030.12	71.795
1030.28	83.509
1030.44	78.968
1030.61	62.447
1030.77	72.541
1030.93	65.476
1031.09	58.824
1031.25	92.386
1031.41	71.486
1031.57	74.262
1031.73	55.833
1031.89	73.145
1032.05	57.678
1032.21	40.000
1032.37	56.115
1032.53	87.266
1032.69	73.391
1032.86	60.577
1033.02	56.146
1033.18	56.923
1033.34	62.724
1033.50	45.078
1033.66	62.264
1033.82	50.916
1033.98	49.138
1034.14	68.203
1034.30	49.618
1034.46	57.143
1034.62	66.667
1034.78	43.382
1034.94	43.321
1035.10	60.194
1035.26	57.732
1035.42	65.563
1035.58	65.343
1035.74	67.635
1035.90	61.951
1036.06	47.566
1036.22	52.672
1036.38	68.282
1036.54	62.295
1036.70	72.083
1036.86	62.371
1037.02	72.161
1037.18	88.095
1037.34	59.127
1037.50	62.621
1037.66	68.947
1037.82	60.069
1037.98	62.724
1038.14	65.746
1038.30	64.231
1038.46	60.791
1038.62	69.014
1038.78	59.615
1038.94	68.966
1039.10	76.077
1039.26	62.069
1039.42	74.771
1039.58	96.450
1039.74	43.515
1039.90	45.500
1040.06	91.220
>>>>>End Processed Spectral Data<<<<<
