SpectraSuite Data File
++++++++++++++++++++++++++++++++++++
Date: Wed Jan 25 18:42:06 EET 2017
User: TheoProf
Dark Spectrum Present: Yes
Reference Spectrum Present: Yes
Number of Sampled Component Spectra: 1
Spectrometers: USB4C02475
Integration Time (usec): 64136 (USB4C02475)
Spectra Averaged: 1 (USB4C02475)
Boxcar Smoothing: 0 (USB4C02475)
Correct for Electrical Dark: No (USB4C02475)
Strobe/Lamp Enabled: No (USB4C02475)
Correct for Detector Non-linearity: No (USB4C02475)
Correct for Stray Light: No (USB4C02475)
Number of Pixels in Processed Spectrum: 3648
>>>>>Begin Processed Spectral Data<<<<<
344.91	158.333
345.13	158.333
345.35	158.333
345.57	371.429
345.79	400.000
346.00	163.158
346.22	-850.000
346.44	48.276
346.66	-360.000
346.87	89.655
347.09	40.000
347.31	102.174
347.53	-5.882
347.74	31.579
347.96	92.857
348.18	225.000
348.40	194.737
348.61	69.231
348.83	84.848
349.05	86.885
349.27	-129.167
349.48	82.353
349.70	76.471
349.92	29.032
350.14	95.082
350.35	133.333
350.57	-6.250
350.79	52.941
351.01	52.308
351.22	-70.000
351.44	34.615
351.66	-20.000
351.87	-133.333
352.09	562.500
352.31	54.286
352.53	66.667
352.74	131.034
352.96	104.000
353.18	87.805
353.40	-100.000
353.61	35.714
353.83	245.455
354.05	50.000
354.26	87.879
354.48	61.905
354.70	94.737
354.92	-107.692
355.13	31.034
355.35	15.094
355.57	52.941
355.78	61.290
356.00	164.583
356.22	71.233
356.44	23.438
356.65	48.077
356.87	-38.462
357.09	102.000
357.30	42.857
357.52	-266.667
357.74	1.818
357.95	41.667
358.17	15.909
358.39	95.349
358.60	53.125
358.82	330.769
359.04	-240.000
359.26	62.745
359.47	-22.222
359.69	33.663
359.91	-100.000
360.12	-110.000
360.34	137.838
360.56	8.333
360.77	100.000
360.99	32.759
361.21	76.786
361.42	6.383
361.64	262.500
361.86	-95.833
362.07	46.341
362.29	43.182
362.51	41.667
362.72	69.231
362.94	75.385
363.16	88.636
363.37	0.000
363.59	76.000
363.81	112.500
364.02	116.327
364.24	-153.846
364.46	32.692
364.67	475.000
364.89	45.455
365.11	-3.704
365.32	60.714
365.54	-5.263
365.76	32.184
365.97	60.606
366.19	227.273
366.41	114.286
366.62	80.000
366.84	-128.571
367.05	34.545
367.27	27.273
367.49	177.419
367.70	31.429
367.92	73.684
368.14	-14.286
368.35	-67.647
368.57	51.899
368.79	37.736
369.00	22.449
369.22	40.000
369.43	82.813
369.65	92.500
369.87	25.714
370.08	38.889
370.30	140.000
370.51	220.000
370.73	71.212
370.95	76.923
371.16	105.556
371.38	225.000
371.60	800.000
371.81	44.737
372.03	53.623
372.24	-500.000
372.46	34.483
372.68	-66.667
372.89	78.947
373.11	77.966
373.32	148.148
373.54	-26.316
373.76	40.816
373.97	35.135
374.19	-61.538
374.40	-81.034
374.62	-171.875
374.84	28.000
375.05	16.667
375.27	66.000
375.48	58.824
375.70	51.724
375.92	82.692
376.13	-50.000
376.35	-14.286
376.56	-100.000
376.78	9.091
376.99	50.769
377.21	-132.558
377.43	-19.231
377.64	19.481
377.86	42.857
378.07	-620.000
378.29	-6.818
378.51	65.432
378.72	73.973
378.94	24.286
379.15	70.175
379.37	8.000
379.58	162.500
379.80	116.667
380.01	-5.263
380.23	95.556
380.45	-10.526
380.66	40.580
380.88	18.182
381.09	67.188
381.31	50.000
381.52	69.565
381.74	64.211
381.95	-250.000
382.17	-31.818
382.39	22.414
382.60	19.048
382.82	-12.000
383.03	56.250
383.25	-20.000
383.46	-26.316
383.68	-34.091
383.89	12.381
384.11	42.373
384.32	-4.651
384.54	32.323
384.76	23.913
384.97	5.882
385.19	77.083
385.40	-3.226
385.62	-20.690
385.83	49.206
386.05	11.667
386.26	-11.111
386.48	8.197
386.69	-17.284
386.91	0.000
387.12	-32.308
387.34	61.538
387.55	-155.556
387.77	27.397
387.98	-16.667
388.20	2.632
388.41	-77.143
388.63	118.000
388.84	57.353
389.06	84.848
389.27	33.663
389.49	10.769
389.70	52.941
389.92	7.143
390.13	32.653
390.35	7.353
390.56	62.745
390.78	70.455
390.99	59.155
391.21	-16.176
391.42	-11.111
391.64	-35.000
391.85	76.389
392.07	37.500
392.28	21.311
392.50	12.222
392.71	-46.774
392.93	5.172
393.14	0.000
393.36	17.925
393.57	16.129
393.79	-4700.000
394.00	23.529
394.22	34.722
394.43	39.785
394.65	-9.677
394.86	21.154
395.08	39.241
395.29	2.353
395.50	8.537
395.72	38.710
395.93	30.075
396.15	61.290
396.36	-9.195
396.58	37.391
396.79	21.622
397.01	29.688
397.22	13.433
397.44	8.403
397.65	65.000
397.87	-62.162
398.08	39.316
398.29	-32.353
398.51	30.667
398.72	37.879
398.94	0.877
399.15	-35.644
399.37	13.433
399.58	2.128
399.80	19.608
400.01	27.381
400.22	23.148
400.44	-22.222
400.65	2.206
400.87	-8.621
401.08	-12.121
401.30	-33.333
401.51	11.290
401.72	18.065
401.94	43.103
402.15	-1.724
402.37	13.208
402.58	-51.389
402.80	-5.479
403.01	-16.049
403.22	41.053
403.44	-2.273
403.65	44.853
403.87	28.571
404.08	18.590
404.30	6.154
404.51	5.932
404.72	17.730
404.94	21.374
405.15	0.676
405.37	25.197
405.58	-28.571
405.79	-27.368
406.01	3.922
406.22	20.800
406.44	7.092
406.65	1.250
406.86	49.007
407.08	12.037
407.29	1.974
407.51	10.256
407.72	27.778
407.93	12.500
408.15	31.902
408.36	20.438
408.58	24.865
408.79	18.310
409.00	18.065
409.22	10.929
409.43	17.730
409.64	6.250
409.86	17.901
410.07	5.696
410.29	5.607
410.50	-22.881
410.71	10.458
410.93	-1.604
411.14	-15.337
411.35	26.144
411.57	-0.602
411.78	-11.834
412.00	0.000
412.21	-5.479
412.42	-5.988
412.64	-9.091
412.85	-1.170
413.06	9.633
413.28	-2.000
413.49	4.831
413.70	19.209
413.92	4.138
414.13	-2.679
414.34	14.660
414.56	20.859
414.77	-5.882
414.98	7.853
415.20	-2.312
415.41	5.556
415.63	8.333
415.84	4.412
416.05	28.261
416.27	5.909
416.48	10.656
416.69	12.613
416.91	0.000
417.12	13.021
417.33	25.316
417.55	7.558
417.76	0.575
417.97	9.268
418.19	17.754
418.40	-0.549
418.61	10.504
418.83	-4.977
419.04	4.054
419.25	12.705
419.46	2.183
419.68	6.190
419.89	-13.369
420.10	7.531
420.32	5.578
420.53	15.663
420.74	18.846
420.96	30.279
421.17	13.043
421.38	9.962
421.60	2.083
421.81	-10.833
422.02	18.391
422.23	5.809
422.45	6.296
422.66	5.000
422.87	2.290
423.09	-13.216
423.30	12.500
423.51	0.369
423.73	19.481
423.94	6.574
424.15	3.861
424.36	20.000
424.58	24.913
424.79	6.601
425.00	-7.394
425.22	9.000
425.43	2.536
425.64	1.623
425.85	-2.429
426.07	0.946
426.28	3.082
426.49	-1.476
426.71	-2.339
426.92	2.367
427.13	12.871
427.34	9.394
427.56	9.821
427.77	-1.953
427.98	-2.823
428.19	-5.405
428.41	3.754
428.62	-18.836
428.83	3.900
429.04	8.075
429.26	8.555
429.47	17.846
429.68	-11.692
429.89	5.952
430.11	10.156
430.32	4.485
430.53	12.857
430.74	-2.174
430.96	10.209
431.17	7.977
431.38	3.871
431.59	-12.844
431.81	5.645
432.02	8.427
432.23	3.182
432.44	5.385
432.66	-3.631
432.87	1.216
433.08	2.083
433.29	-0.761
433.51	-0.490
433.72	4.450
433.93	2.564
434.14	14.319
434.35	2.421
434.57	7.547
434.78	4.337
434.99	4.310
435.20	6.214
435.42	15.369
435.63	11.624
435.84	15.240
436.05	19.577
436.26	-0.965
436.48	5.794
436.69	0.213
436.90	7.294
437.11	8.939
437.32	-0.209
437.54	9.356
437.75	17.694
437.96	6.387
438.17	6.205
438.38	18.675
438.60	7.649
438.81	1.205
439.02	3.755
439.23	5.370
439.44	6.445
439.66	9.643
439.87	10.465
440.08	8.884
440.29	9.690
440.50	6.408
440.72	7.235
440.93	-0.178
441.14	-2.868
441.35	3.682
441.56	2.317
441.77	9.524
441.99	4.643
442.20	6.631
442.41	5.725
442.62	9.655
442.83	8.784
443.04	3.273
443.26	3.509
443.47	6.316
443.68	5.219
443.89	1.289
444.10	4.301
444.31	7.804
444.53	7.012
444.74	4.272
444.95	-0.542
445.16	-0.839
445.37	0.809
445.58	7.097
445.80	3.393
446.01	13.247
446.22	8.205
446.43	10.583
446.64	4.594
446.85	-0.916
447.06	5.121
447.28	10.380
447.49	8.962
447.70	9.021
447.91	9.201
448.12	10.933
448.33	5.103
448.54	0.464
448.76	2.418
448.97	4.937
449.18	4.362
449.39	5.360
449.60	9.410
449.81	6.250
450.02	7.193
450.23	7.682
450.45	5.132
450.66	11.950
450.87	4.750
451.08	12.871
451.29	10.709
451.50	10.540
451.71	8.758
451.92	18.873
452.13	23.881
452.35	25.321
452.56	38.951
452.77	45.806
452.98	56.301
453.19	63.346
453.40	66.404
453.61	71.544
453.82	82.902
454.03	83.681
454.25	84.774
454.46	85.981
454.67	79.904
454.88	81.856
455.09	81.011
455.30	82.017
455.51	88.940
455.72	86.706
455.93	97.403
456.14	93.946
456.35	93.841
456.56	93.688
456.78	89.192
456.99	92.786
457.20	81.285
457.41	85.683
457.62	82.656
457.83	85.275
458.04	86.952
458.25	87.668
458.46	86.304
458.67	80.915
458.88	85.197
459.09	86.221
459.30	86.889
459.51	89.820
459.73	92.872
459.94	89.669
460.15	96.115
460.36	95.174
460.57	89.379
460.78	89.800
460.99	84.716
461.20	83.945
461.41	84.970
461.62	86.873
461.83	86.024
462.04	91.003
462.25	87.633
462.46	95.091
462.67	86.542
462.88	95.061
463.09	89.324
463.30	84.454
463.51	90.250
463.72	91.993
463.93	89.805
464.15	89.323
464.36	89.213
464.57	87.711
464.78	84.728
464.99	79.178
465.20	89.143
465.41	92.981
465.62	87.957
465.83	91.774
466.04	98.740
466.25	94.888
466.46	98.797
466.67	90.089
466.88	93.431
467.09	86.292
467.30	87.807
467.51	85.083
467.72	92.559
467.93	88.954
468.14	89.766
468.35	89.529
468.56	90.844
468.77	93.697
468.98	90.077
469.19	92.744
469.40	92.732
469.61	88.517
469.82	90.848
470.03	88.160
470.24	89.474
470.45	90.654
470.66	88.181
470.87	91.206
471.08	99.699
471.29	97.571
471.50	90.279
471.71	97.386
471.92	90.194
472.13	89.573
472.34	93.269
472.55	86.964
472.76	94.134
472.97	88.117
473.18	90.288
473.39	88.250
473.60	95.281
473.81	88.643
474.01	94.716
474.22	93.298
474.43	93.784
474.64	92.914
474.85	84.335
475.06	89.752
475.27	90.432
475.48	89.861
475.69	87.466
475.90	89.003
476.11	92.884
476.32	95.137
476.53	96.629
476.74	96.857
476.95	93.085
477.16	94.319
477.37	94.452
477.58	91.445
477.79	90.613
478.00	87.348
478.21	91.361
478.41	90.264
478.62	89.847
478.83	90.028
479.04	89.862
479.25	91.976
479.46	92.790
479.67	92.737
479.88	89.480
480.09	94.513
480.30	92.638
480.51	91.409
480.72	91.403
480.93	91.853
481.14	89.122
481.34	84.923
481.55	88.964
481.76	88.635
481.97	92.176
482.18	93.082
482.39	90.182
482.60	89.902
482.81	93.531
483.02	93.218
483.23	88.059
483.44	89.822
483.65	91.286
483.85	93.881
484.06	94.035
484.27	96.082
484.48	98.437
484.69	96.725
484.90	101.571
485.11	100.586
485.32	100.061
485.53	101.936
485.73	96.688
485.94	96.521
486.15	91.443
486.36	93.546
486.57	93.547
486.78	92.118
486.99	90.560
487.20	88.186
487.41	92.011
487.61	93.655
487.82	98.896
488.03	97.809
488.24	94.201
488.45	92.952
488.66	87.971
488.87	87.140
489.08	90.274
489.28	89.715
489.49	89.127
489.70	88.697
489.91	89.735
490.12	89.162
490.33	89.534
490.54	90.234
490.74	93.006
490.95	95.126
491.16	92.419
491.37	95.583
491.58	94.874
491.79	95.250
492.00	93.292
492.20	94.009
492.41	95.329
492.62	91.257
492.83	95.176
493.04	94.342
493.25	94.221
493.45	98.070
493.66	91.265
493.87	87.994
494.08	86.034
494.29	88.597
494.50	86.348
494.70	87.400
494.91	91.759
495.12	95.548
495.33	97.927
495.54	96.409
495.75	97.420
495.95	98.371
496.16	95.490
496.37	93.784
496.58	94.191
496.79	93.173
496.99	92.405
497.20	98.114
497.41	95.857
497.62	94.098
497.83	91.896
498.04	92.932
498.24	94.935
498.45	94.455
498.66	95.486
498.87	95.429
499.08	92.834
499.28	93.103
499.49	88.657
499.70	92.289
499.91	90.090
500.12	90.659
500.32	92.153
500.53	94.656
500.74	94.224
500.95	98.023
501.15	90.752
501.36	90.119
501.57	84.837
501.78	79.608
501.99	70.194
502.19	61.687
502.40	53.885
502.61	44.526
502.82	37.407
503.02	29.552
503.23	25.532
503.44	19.326
503.65	14.121
503.86	11.458
504.06	6.346
504.27	5.328
504.48	4.316
504.69	2.528
504.89	2.541
505.10	2.422
505.31	2.123
505.52	2.228
505.72	1.812
505.93	3.258
506.14	0.815
506.35	1.591
506.55	1.069
506.76	1.451
506.97	2.033
507.18	1.214
507.38	1.749
507.59	1.777
507.80	0.293
508.01	1.437
508.21	0.700
508.42	1.383
508.63	1.574
508.84	1.179
509.04	1.012
509.25	0.716
509.46	1.280
509.67	0.368
509.87	1.566
510.08	1.334
510.29	0.664
510.49	1.185
510.70	0.834
510.91	1.758
511.12	0.656
511.32	1.577
511.53	1.273
511.74	0.917
511.94	1.271
512.15	0.835
512.36	1.356
512.57	0.881
512.77	0.588
512.98	0.721
513.19	0.629
513.39	0.774
513.60	1.092
513.81	0.440
514.01	0.124
514.22	1.551
514.43	1.172
514.64	1.419
514.84	0.476
515.05	0.671
515.26	1.055
515.46	1.152
515.67	0.517
515.88	0.233
516.08	0.810
516.29	0.386
516.50	0.853
516.70	1.185
516.91	0.740
517.12	0.734
517.32	0.670
517.53	0.789
517.74	0.660
517.95	0.686
518.15	0.859
518.36	0.592
518.57	0.749
518.77	0.921
518.98	1.086
519.19	0.656
519.39	0.228
519.60	0.359
519.80	0.954
520.01	0.473
520.22	1.070
520.42	0.641
520.63	0.976
520.84	0.581
521.04	0.933
521.25	0.092
521.46	0.997
521.66	0.536
521.87	0.361
522.08	1.074
522.28	0.350
522.49	0.654
522.70	0.825
522.90	0.570
523.11	0.637
523.31	0.871
523.52	0.661
523.73	0.673
523.93	1.250
524.14	0.210
524.35	1.400
524.55	1.012
524.76	0.561
524.97	1.162
525.17	0.622
525.38	0.703
525.58	0.373
525.79	1.002
526.00	0.855
526.20	0.719
526.41	0.434
526.61	-0.103
526.82	0.792
527.03	0.745
527.23	0.836
527.44	0.154
527.64	0.613
527.85	0.377
528.06	0.469
528.26	0.524
528.47	0.770
528.68	0.470
528.88	-0.063
529.09	0.296
529.29	0.909
529.50	0.961
529.70	0.913
529.91	0.840
530.12	0.576
530.32	0.734
530.53	0.549
530.73	0.839
530.94	0.213
531.15	0.930
531.35	1.313
531.56	0.571
531.76	0.863
531.97	0.599
532.17	1.061
532.38	0.792
532.59	1.060
532.79	0.639
533.00	0.994
533.20	0.670
533.41	0.125
533.61	1.071
533.82	0.788
534.03	0.954
534.23	0.557
534.44	0.599
534.64	0.890
534.85	1.018
535.05	0.581
535.26	0.744
535.46	0.996
535.67	0.586
535.88	1.271
536.08	1.268
536.29	0.811
536.49	0.764
536.70	1.120
536.90	0.630
537.11	1.036
537.31	0.494
537.52	0.724
537.72	1.048
537.93	0.827
538.13	1.371
538.34	1.488
538.55	1.191
538.75	1.243
538.96	1.177
539.16	0.959
539.37	1.620
539.57	0.736
539.78	1.422
539.98	1.710
540.19	1.261
540.39	1.895
540.60	1.469
540.80	1.902
541.01	2.052
541.21	1.910
541.42	1.864
541.62	2.107
541.83	2.045
542.03	2.339
542.24	1.878
542.44	2.045
542.65	2.152
542.85	1.949
543.06	2.307
543.26	2.647
543.47	2.420
543.67	2.590
543.88	2.257
544.08	2.372
544.29	2.189
544.49	2.686
544.70	1.888
544.90	2.011
545.11	2.291
545.31	1.760
545.52	2.168
545.72	3.228
545.93	3.885
546.13	2.705
546.34	3.115
546.54	2.448
546.75	2.717
546.95	2.529
547.15	2.836
547.36	2.747
547.56	2.242
547.77	2.100
547.97	1.932
548.18	2.600
548.38	2.065
548.59	2.019
548.79	2.408
549.00	1.649
549.20	1.787
549.41	2.400
549.61	1.896
549.81	1.703
550.02	1.872
550.22	1.943
550.43	2.320
550.63	2.212
550.84	1.991
551.04	1.872
551.25	2.183
551.45	2.379
551.65	2.275
551.86	2.534
552.06	2.940
552.27	2.696
552.47	2.778
552.68	2.846
552.88	3.107
553.08	3.619
553.29	3.990
553.49	4.918
553.70	6.443
553.90	9.637
554.11	13.159
554.31	19.038
554.51	25.284
554.72	32.582
554.92	40.956
555.13	48.551
555.33	55.171
555.53	62.770
555.74	69.158
555.94	71.473
556.15	75.213
556.35	77.487
556.56	82.477
556.76	85.055
556.96	88.180
557.17	91.140
557.37	91.074
557.58	92.329
557.78	95.644
557.98	97.540
558.19	99.956
558.39	98.310
558.59	96.372
558.80	92.585
559.00	94.435
559.21	93.787
559.41	92.715
559.61	92.925
559.82	93.475
560.02	93.210
560.23	93.227
560.43	91.129
560.63	90.746
560.84	93.025
561.04	95.715
561.24	98.349
561.45	99.800
561.65	100.070
561.85	99.388
562.06	99.923
562.26	99.115
562.47	99.341
562.67	98.196
562.87	97.637
563.08	94.168
563.28	93.226
563.48	91.802
563.69	91.376
563.89	91.280
564.09	92.770
564.30	92.200
564.50	91.587
564.70	90.795
564.91	90.840
565.11	89.717
565.31	90.676
565.52	87.362
565.72	88.155
565.92	88.795
566.13	87.624
566.33	91.836
566.53	91.270
566.74	93.597
566.94	96.059
567.14	98.331
567.35	98.517
567.55	98.751
567.75	97.615
567.96	96.556
568.16	91.258
568.36	90.842
568.57	90.170
568.77	92.688
568.97	93.291
569.18	93.171
569.38	95.219
569.58	93.759
569.79	95.125
569.99	93.190
570.19	93.569
570.39	96.906
570.60	95.727
570.80	95.614
571.00	93.829
571.21	94.431
571.41	95.223
571.61	97.565
571.82	94.799
572.02	93.754
572.22	94.292
572.42	94.296
572.63	94.237
572.83	94.775
573.03	93.503
573.24	93.278
573.44	93.044
573.64	92.592
573.84	93.324
574.05	94.445
574.25	95.788
574.45	96.938
574.66	98.441
574.86	97.609
575.06	98.528
575.26	97.770
575.47	98.377
575.67	95.190
575.87	95.102
576.07	93.734
576.28	93.390
576.48	91.081
576.68	92.987
576.88	93.115
577.09	96.370
577.29	97.257
577.49	96.087
577.69	95.222
577.90	96.202
578.10	97.422
578.30	95.430
578.50	95.171
578.71	93.013
578.91	94.602
579.11	95.288
579.31	97.517
579.52	100.645
579.72	101.921
579.92	98.755
580.12	98.452
580.33	96.140
580.53	92.845
580.73	91.931
580.93	90.068
581.13	91.714
581.34	91.737
581.54	94.871
581.74	97.873
581.94	98.179
582.15	98.426
582.35	95.479
582.55	93.810
582.75	91.893
582.95	93.660
583.16	93.684
583.36	92.413
583.56	91.139
583.76	90.745
583.96	92.153
584.17	92.209
584.37	94.181
584.57	95.737
584.77	94.890
584.97	94.107
585.18	91.396
585.38	89.736
585.58	90.480
585.78	90.926
585.98	97.374
586.19	99.395
586.39	102.487
586.59	103.751
586.79	99.093
586.99	96.991
587.20	94.559
587.40	93.431
587.60	91.616
587.80	93.460
588.00	92.735
588.20	95.464
588.41	96.891
588.61	98.129
588.81	96.298
589.01	93.380
589.21	92.228
589.41	92.592
589.62	92.829
589.82	91.536
590.02	92.019
590.22	92.218
590.42	92.121
590.62	93.198
590.83	92.014
591.03	93.201
591.23	93.431
591.43	94.897
591.63	94.323
591.83	94.320
592.03	93.687
592.24	94.093
592.44	93.972
592.64	93.921
592.84	93.880
593.04	92.158
593.24	93.643
593.44	94.509
593.65	94.234
593.85	94.118
594.05	94.450
594.25	95.763
594.45	96.576
594.65	96.492
594.85	92.922
595.06	90.412
595.26	88.218
595.46	88.549
595.66	87.876
595.86	92.421
596.06	93.986
596.26	96.319
596.46	97.877
596.66	97.824
596.87	98.742
597.07	98.643
597.27	99.507
597.47	99.139
597.67	99.987
597.87	99.051
598.07	99.881
598.27	100.709
598.47	98.523
598.67	99.051
598.88	97.790
599.08	95.443
599.28	94.062
599.48	92.963
599.68	93.419
599.88	92.119
600.08	93.813
600.28	93.532
600.48	95.330
600.68	95.798
600.88	96.126
601.09	94.796
601.29	95.248
601.49	97.598
601.69	95.766
601.89	97.388
602.09	95.840
602.29	96.514
602.49	96.883
602.69	94.147
602.89	92.572
603.09	90.152
603.29	88.109
603.49	88.926
603.69	88.258
603.90	87.467
604.10	88.260
604.30	88.957
604.50	89.014
604.70	89.289
604.90	88.720
605.10	90.982
605.30	94.418
605.50	98.155
605.70	99.035
605.90	99.333
606.10	100.149
606.30	98.921
606.50	98.800
606.70	97.786
606.90	97.915
607.10	98.725
607.30	99.067
607.50	102.206
607.70	101.275
607.90	99.611
608.10	98.847
608.30	97.068
608.50	93.540
608.70	91.439
608.90	89.515
609.11	87.100
609.31	87.750
609.51	88.712
609.71	87.437
609.91	87.099
610.11	86.783
610.31	89.907
610.51	91.374
610.71	94.673
610.91	91.289
611.11	90.005
611.31	84.154
611.51	76.835
611.71	69.378
611.91	61.266
612.11	54.485
612.31	48.506
612.51	42.613
612.71	37.727
612.91	33.535
613.11	29.266
613.31	25.476
613.51	22.196
613.71	18.832
613.91	15.590
614.11	13.025
614.31	9.653
614.50	7.577
614.70	5.589
614.90	4.238
615.10	3.387
615.30	2.885
615.50	2.409
615.70	1.883
615.90	1.851
616.10	1.761
616.30	1.498
616.50	1.281
616.70	1.294
616.90	1.091
617.10	1.380
617.30	1.045
617.50	1.178
617.70	1.078
617.90	0.995
618.10	1.189
618.30	1.226
618.50	0.889
618.70	1.293
618.90	0.868
619.10	0.816
619.30	0.807
619.49	0.761
619.69	0.952
619.89	0.798
620.09	0.909
620.29	0.903
620.49	1.008
620.69	0.763
620.89	0.742
621.09	0.860
621.29	0.940
621.49	0.854
621.69	0.833
621.89	0.481
622.09	0.699
622.29	0.717
622.48	0.770
622.68	0.582
622.88	0.593
623.08	0.629
623.28	0.496
623.48	0.498
623.68	0.608
623.88	0.730
624.08	0.628
624.28	0.763
624.48	0.567
624.67	0.539
624.87	0.615
625.07	0.703
625.27	0.499
625.47	0.615
625.67	0.390
625.87	0.640
626.07	0.602
626.27	0.413
626.47	0.732
626.66	0.559
626.86	0.530
627.06	0.541
627.26	0.425
627.46	0.529
627.66	0.721
627.86	0.541
628.06	0.357
628.25	0.447
628.45	0.462
628.65	0.433
628.85	0.676
629.05	0.512
629.25	0.427
629.45	0.694
629.65	0.409
629.84	0.395
630.04	0.561
630.24	0.457
630.44	0.772
630.64	0.735
630.84	0.495
631.04	0.588
631.23	0.486
631.43	0.579
631.63	0.528
631.83	0.385
632.03	0.715
632.23	0.605
632.42	0.669
632.62	0.510
632.82	0.405
633.02	0.626
633.22	0.556
633.42	0.675
633.62	0.513
633.81	0.543
634.01	0.371
634.21	0.505
634.41	0.687
634.61	0.449
634.80	0.326
635.00	0.485
635.20	0.499
635.40	0.564
635.60	0.537
635.80	0.525
635.99	0.679
636.19	0.504
636.39	0.430
636.59	0.634
636.79	0.863
636.98	0.574
637.18	0.749
637.38	0.451
637.58	0.473
637.78	0.614
637.97	0.722
638.17	0.595
638.37	0.656
638.57	0.583
638.77	0.688
638.96	0.765
639.16	0.757
639.36	0.461
639.56	0.801
639.76	0.831
639.95	0.580
640.15	0.530
640.35	0.671
640.55	0.499
640.75	0.696
640.94	0.835
641.14	0.476
641.34	0.661
641.54	0.703
641.73	0.752
641.93	0.681
642.13	0.776
642.33	0.621
642.53	0.608
642.72	0.752
642.92	0.912
643.12	0.789
643.32	0.879
643.51	0.659
643.71	0.597
643.91	0.856
644.11	0.639
644.30	0.973
644.50	0.746
644.70	0.844
644.90	0.865
645.09	0.802
645.29	0.905
645.49	0.864
645.69	0.833
645.88	0.943
646.08	0.860
646.28	0.843
646.48	0.794
646.67	0.947
646.87	1.154
647.07	1.037
647.26	1.008
647.46	1.105
647.66	0.931
647.86	1.044
648.05	1.340
648.25	1.034
648.45	0.930
648.65	1.089
648.84	1.470
649.04	1.218
649.24	1.095
649.43	1.210
649.63	1.210
649.83	1.188
650.03	1.421
650.22	1.276
650.42	1.407
650.62	1.444
650.81	1.353
651.01	1.351
651.21	1.645
651.40	1.549
651.60	1.535
651.80	1.724
652.00	1.749
652.19	1.536
652.39	1.934
652.59	1.848
652.78	1.751
652.98	1.986
653.18	1.944
653.37	2.275
653.57	2.276
653.77	2.452
653.96	3.184
654.16	3.614
654.36	4.945
654.55	6.253
654.75	7.737
654.95	9.471
655.14	12.327
655.34	15.506
655.54	20.506
655.73	25.904
655.93	32.813
656.13	38.529
656.32	44.769
656.52	51.014
656.72	55.556
656.91	58.728
657.11	62.282
657.31	66.805
657.50	70.256
657.70	74.426
657.90	79.319
658.09	82.897
658.29	86.229
658.49	87.994
658.68	88.790
658.88	88.868
659.07	90.685
659.27	93.376
659.47	92.772
659.66	92.233
659.86	89.864
660.06	89.424
660.25	87.972
660.45	90.554
660.64	91.696
660.84	91.194
661.04	92.034
661.23	92.368
661.43	92.338
661.63	92.526
661.82	92.336
662.02	92.718
662.21	92.291
662.41	92.513
662.61	92.170
662.80	93.516
663.00	93.907
663.19	94.587
663.39	93.547
663.59	95.171
663.78	96.268
663.98	96.139
664.17	96.771
664.37	96.495
664.57	93.790
664.76	92.244
664.96	90.592
665.15	89.868
665.35	87.798
665.55	87.466
665.74	87.255
665.94	87.656
666.13	86.511
666.33	87.204
666.53	88.298
666.72	90.043
666.92	92.316
667.11	95.763
667.31	96.463
667.50	99.060
667.70	98.593
667.90	99.559
668.09	99.051
668.29	97.498
668.48	98.401
668.68	97.779
668.87	97.520
669.07	94.587
669.26	93.499
669.46	92.831
669.66	92.824
669.85	92.257
670.05	92.209
670.24	91.237
670.44	91.228
670.63	92.388
670.83	92.185
671.02	92.055
671.22	91.469
671.42	93.122
671.61	93.878
671.81	95.342
672.00	95.357
672.20	93.776
672.39	92.778
672.59	92.298
672.78	93.177
672.98	93.147
673.17	91.988
673.37	92.949
673.56	93.419
673.76	93.829
673.95	94.558
674.15	94.260
674.34	94.240
674.54	93.706
674.73	90.237
674.93	90.391
675.13	90.468
675.32	90.931
675.52	92.868
675.71	95.566
675.91	95.788
676.10	97.473
676.30	94.400
676.49	94.520
676.69	92.792
676.88	93.316
677.08	93.492
677.27	93.205
677.47	93.132
677.66	92.609
677.86	91.087
678.05	89.735
678.24	87.509
678.44	85.580
678.63	84.018
678.83	85.471
679.02	88.360
679.22	89.097
679.41	91.148
679.61	94.225
679.80	96.288
680.00	96.893
680.19	96.263
680.39	95.177
680.58	93.371
680.78	95.461
680.97	94.518
681.17	93.060
681.36	92.328
681.56	92.075
681.75	92.400
681.94	92.600
682.14	92.443
682.33	91.765
682.53	92.997
682.72	91.089
682.92	91.137
683.11	90.153
683.31	90.191
683.50	91.335
683.69	94.008
683.89	96.636
684.08	96.051
684.28	96.033
684.47	94.965
684.67	94.541
684.86	95.222
685.06	95.501
685.25	95.064
685.44	93.332
685.64	93.056
685.83	90.967
686.03	90.543
686.22	89.106
686.42	91.595
686.61	93.191
686.80	93.844
687.00	93.561
687.19	94.083
687.39	93.684
687.58	92.748
687.77	92.240
687.97	89.663
688.16	90.009
688.36	89.909
688.55	90.932
688.74	91.659
688.94	92.376
689.13	91.340
689.33	90.221
689.52	89.589
689.71	88.990
689.91	87.276
690.10	86.223
690.30	86.981
690.49	88.039
690.68	92.142
690.88	92.819
691.07	96.168
691.27	97.936
691.46	100.674
691.65	104.673
691.85	105.208
692.04	106.081
692.23	105.366
692.43	106.359
692.62	104.245
692.82	101.248
693.01	97.153
693.20	94.576
693.40	93.063
693.59	92.336
693.78	91.997
693.98	91.198
694.17	90.979
694.36	90.714
694.56	91.544
694.75	91.521
694.94	90.398
695.14	92.224
695.33	91.025
695.53	93.591
695.72	95.214
695.91	96.420
696.11	96.466
696.30	96.635
696.49	96.959
696.69	96.611
696.88	97.543
697.07	98.305
697.27	97.456
697.46	95.953
697.65	92.013
697.85	89.081
698.04	88.339
698.23	88.775
698.43	89.193
698.62	89.811
698.81	88.701
699.01	89.160
699.20	91.039
699.39	93.552
699.58	95.910
699.78	97.548
699.97	95.792
700.16	93.989
700.36	93.059
700.55	93.126
700.74	92.642
700.94	92.114
701.13	91.010
701.32	89.739
701.52	89.463
701.71	88.993
701.90	88.848
702.09	89.256
702.29	90.273
702.48	92.349
702.67	94.787
702.87	94.259
703.06	90.493
703.25	89.501
703.44	88.362
703.64	88.471
703.83	88.478
704.02	89.931
704.22	91.401
704.41	92.587
704.60	93.163
704.79	94.057
704.99	95.474
705.18	93.945
705.37	93.313
705.56	90.205
705.76	88.735
705.95	87.866
706.14	87.833
706.33	88.617
706.53	90.034
706.72	91.245
706.91	92.212
707.11	94.799
707.30	95.553
707.49	96.374
707.68	99.162
707.88	98.330
708.07	96.763
708.26	94.089
708.45	90.584
708.64	89.576
708.84	88.598
709.03	87.584
709.22	86.063
709.41	85.884
709.61	86.975
709.80	85.286
709.99	85.776
710.18	87.310
710.38	85.987
710.57	87.648
710.76	87.585
710.95	85.413
711.14	82.789
711.34	82.546
711.53	79.965
711.72	79.196
711.91	78.141
712.11	77.264
712.30	74.728
712.49	69.765
712.68	66.743
712.87	60.364
713.07	54.791
713.26	49.556
713.45	44.223
713.64	39.878
713.83	34.869
714.03	31.142
714.22	26.332
714.41	22.787
714.60	19.315
714.79	15.892
714.99	13.172
715.18	10.658
715.37	8.603
715.56	7.506
715.75	5.933
715.94	4.804
716.14	3.603
716.33	2.889
716.52	2.813
716.71	2.372
716.90	2.030
717.10	1.773
717.29	1.628
717.48	1.346
717.67	1.266
717.86	1.254
718.05	1.032
718.24	1.024
718.44	0.824
718.63	1.035
718.82	1.174
719.01	0.917
719.20	1.005
719.39	0.877
719.59	0.771
719.78	0.904
719.97	0.903
720.16	0.651
720.35	0.842
720.54	0.733
720.73	0.453
720.93	0.945
721.12	0.921
721.31	1.006
721.50	0.747
721.69	0.640
721.88	0.637
722.07	0.611
722.27	0.731
722.46	0.308
722.65	0.531
722.84	0.588
723.03	0.570
723.22	0.369
723.41	0.803
723.60	0.601
723.79	0.671
723.99	0.554
724.18	0.545
724.37	0.404
724.56	0.577
724.75	0.554
724.94	0.377
725.13	0.568
725.32	0.285
725.51	0.621
725.71	0.268
725.90	0.376
726.09	0.444
726.28	0.513
726.47	0.411
726.66	0.489
726.85	0.388
727.04	0.496
727.23	0.605
727.42	0.578
727.61	0.351
727.81	0.716
728.00	0.231
728.19	0.125
728.38	0.118
728.57	0.464
728.76	0.384
728.95	0.366
729.14	0.399
729.33	0.501
729.52	0.392
729.71	0.366
729.90	0.472
730.09	0.335
730.28	0.105
730.48	0.300
730.67	0.469
730.86	0.465
731.05	0.293
731.24	0.359
731.43	0.211
731.62	0.578
731.81	0.424
732.00	0.546
732.19	0.347
732.38	0.267
732.57	0.350
732.76	0.381
732.95	0.312
733.14	0.492
733.33	0.399
733.52	0.369
733.71	0.450
733.90	0.146
734.09	0.308
734.28	0.143
734.47	0.457
734.66	0.503
734.85	0.120
735.04	0.293
735.23	0.236
735.42	0.411
735.61	0.479
735.81	0.141
736.00	0.154
736.19	0.241
736.38	0.260
736.57	0.293
736.76	0.066
736.95	0.307
737.14	0.176
737.33	0.579
737.52	0.149
737.71	0.139
737.90	0.196
738.09	-0.048
738.28	0.103
738.47	-0.039
738.66	0.114
738.85	0.174
739.04	0.041
739.22	0.053
739.41	0.392
739.60	0.121
739.79	0.267
739.98	0.298
740.17	0.119
740.36	0.471
740.55	0.210
740.74	0.126
740.93	0.427
741.12	0.145
741.31	0.000
741.50	0.337
741.69	0.120
741.88	0.326
742.07	0.405
742.26	0.366
742.45	0.277
742.64	0.254
742.83	0.285
743.02	-0.030
743.21	0.071
743.40	0.341
743.59	0.300
743.78	0.246
743.97	0.052
744.16	0.060
744.34	0.167
744.53	0.596
744.72	0.060
744.91	0.349
745.10	0.032
745.29	0.206
745.48	0.071
745.67	0.228
745.86	0.468
746.05	0.229
746.24	0.209
746.43	0.228
746.62	0.171
746.81	-0.142
747.00	-0.065
747.18	0.136
747.37	0.231
747.56	0.224
747.75	0.129
747.94	0.033
748.13	0.472
748.32	0.390
748.51	0.235
748.70	0.083
748.89	0.301
749.08	0.159
749.26	0.329
749.45	-0.034
749.64	0.285
749.83	-0.128
750.02	0.316
750.21	0.254
750.40	0.394
750.59	0.274
750.78	0.394
750.96	0.301
751.15	0.517
751.34	0.306
751.53	0.159
751.72	0.226
751.91	0.000
752.10	0.163
752.29	0.179
752.47	0.284
752.66	0.358
752.85	0.392
753.04	0.246
753.23	0.257
753.42	0.294
753.61	0.255
753.80	0.273
753.98	0.159
754.17	0.234
754.36	0.353
754.55	0.107
754.74	0.198
754.93	0.200
755.12	-0.035
755.30	0.197
755.49	0.327
755.68	0.090
755.87	-0.018
756.06	0.125
756.25	0.018
756.43	0.423
756.62	0.372
756.81	0.397
757.00	0.528
757.19	0.584
757.38	0.305
757.56	0.484
757.75	0.582
757.94	0.447
758.13	0.087
758.32	0.769
758.51	0.375
758.69	0.089
758.88	0.060
759.07	0.626
759.26	-0.132
759.45	0.114
759.63	0.431
759.82	0.179
760.01	0.064
760.20	-0.633
760.39	0.416
760.57	0.210
760.76	0.278
760.95	0.599
761.14	0.124
761.33	0.183
761.51	0.649
761.70	-0.104
761.89	0.183
762.08	0.266
762.27	0.420
762.45	0.644
762.64	0.678
762.83	0.636
763.02	0.161
763.21	0.719
763.39	0.165
763.58	-0.510
763.77	0.230
763.96	0.219
764.14	0.471
764.33	0.039
764.52	0.490
764.71	0.707
764.89	0.093
765.08	0.651
765.27	-0.294
765.46	-0.080
765.65	0.663
765.83	0.474
766.02	-0.419
766.21	0.134
766.40	0.188
766.58	0.850
766.77	0.684
766.96	0.174
767.15	0.774
767.33	0.672
767.52	0.602
767.71	0.250
767.90	-0.266
768.08	0.411
768.27	0.080
768.46	0.177
768.64	0.211
768.83	-0.230
769.02	0.271
769.21	-0.673
769.39	-0.068
769.58	-0.445
769.77	0.411
769.96	0.819
770.14	0.239
770.33	0.270
770.52	0.423
770.70	0.017
770.89	0.103
771.08	0.119
771.27	0.567
771.45	0.308
771.64	0.762
771.83	0.594
772.01	0.105
772.20	0.901
772.39	0.263
772.57	-0.344
772.76	-0.073
772.95	-0.219
773.14	0.798
773.32	0.277
773.51	0.114
773.70	0.491
773.88	-0.483
774.07	-0.272
774.26	0.664
774.44	0.019
774.63	0.842
774.82	-0.605
775.00	0.038
775.19	1.084
775.38	1.205
775.56	-0.172
775.75	0.422
775.94	-0.414
776.12	0.587
776.31	0.221
776.50	0.499
776.68	0.909
776.87	2.092
777.06	-0.569
777.24	0.650
777.43	0.657
777.62	0.451
777.80	-0.225
777.99	0.145
778.18	1.502
778.36	-0.418
778.55	0.021
778.74	-0.351
778.92	0.643
779.11	0.746
779.29	0.184
779.48	0.581
779.67	-0.082
779.85	0.101
780.04	-0.204
780.23	0.985
780.41	0.081
780.60	-0.061
780.79	-0.179
780.97	0.300
781.16	0.983
781.34	-0.835
781.53	0.000
781.72	0.117
781.90	0.312
782.09	0.660
782.28	0.661
782.46	0.902
782.65	-0.059
782.83	-0.060
783.02	-0.381
783.21	0.395
783.39	0.515
783.58	0.232
783.76	0.554
783.95	0.057
784.14	-0.037
784.32	0.258
784.51	0.218
784.69	0.719
784.88	0.073
785.06	-0.561
785.25	-0.321
785.44	0.354
785.62	-0.141
785.81	0.163
785.99	-0.018
786.18	-0.148
786.37	0.056
786.55	0.440
786.74	-0.152
786.92	0.356
787.11	0.396
787.29	0.020
787.48	0.060
787.67	0.453
787.85	0.409
788.04	0.696
788.22	0.790
788.41	0.673
788.59	0.846
788.78	-0.451
788.96	-0.462
789.15	-0.058
789.34	0.019
789.52	-0.964
789.71	0.474
789.89	0.492
790.08	0.441
790.26	0.054
790.45	-0.565
790.63	-0.357
790.82	0.018
791.00	0.087
791.19	0.673
791.38	0.361
791.56	0.285
791.75	-0.159
791.93	0.472
792.12	0.381
792.30	-0.209
792.49	-0.240
792.67	0.293
792.86	0.301
793.04	0.745
793.23	-0.345
793.41	0.156
793.60	0.607
793.78	0.638
793.97	0.226
794.15	0.226
794.34	0.721
794.52	0.416
794.71	-0.204
794.89	0.517
795.08	-0.032
795.26	-0.081
795.45	0.677
795.63	0.186
795.82	-0.089
796.00	0.133
796.19	-0.162
796.37	-0.493
796.56	-0.668
796.74	1.088
796.93	0.729
797.11	-0.363
797.30	-0.317
797.48	0.304
797.67	0.734
797.85	-0.059
798.04	0.641
798.22	-0.300
798.41	-0.031
798.59	0.200
798.77	-0.061
798.96	-0.308
799.14	-0.540
799.33	0.227
799.51	0.091
799.70	0.045
799.88	-0.197
800.07	-0.627
800.25	0.059
800.44	0.528
800.62	0.044
800.80	1.083
800.99	-0.340
801.17	-0.118
801.36	0.682
801.54	-0.029
801.73	0.235
801.91	0.365
802.10	-0.043
802.28	0.451
802.46	0.618
802.65	-0.316
802.83	0.231
803.02	0.457
803.20	-0.085
803.39	-0.203
803.57	-0.209
803.75	0.209
803.94	-0.137
804.12	0.171
804.31	-0.344
804.49	0.016
804.67	0.197
804.86	0.606
805.04	-0.187
805.23	0.619
805.41	0.168
805.59	0.373
805.78	-0.048
805.96	0.326
806.15	0.400
806.33	0.278
806.51	-0.107
806.70	-0.198
806.88	-0.091
807.07	0.077
807.25	0.269
807.43	-0.301
807.62	0.479
807.80	-0.414
807.99	-0.016
808.17	0.186
808.35	-0.362
808.54	0.061
808.72	0.438
808.90	-0.105
809.09	-0.346
809.27	0.242
809.46	-0.217
809.64	0.197
809.82	-0.664
810.01	-0.185
810.19	0.690
810.37	-0.299
810.56	-0.626
810.74	0.300
810.92	0.405
811.11	0.105
811.29	-0.244
811.48	-0.698
811.66	-0.094
811.84	-0.209
812.03	0.279
812.21	0.311
812.39	-0.049
812.58	0.115
812.76	0.363
812.94	0.064
813.13	0.257
813.31	0.130
813.49	0.331
813.68	0.281
813.86	0.276
814.04	0.417
814.23	1.108
814.41	0.074
814.59	-0.059
814.78	0.621
814.96	0.352
815.14	0.962
815.33	0.364
815.51	-0.431
815.69	0.809
815.87	0.176
816.06	0.485
816.24	-0.281
816.42	1.037
816.61	-0.086
816.79	-0.157
816.97	-0.272
817.16	-0.165
817.34	0.815
817.52	0.494
817.70	-0.169
817.89	-0.483
818.07	-0.192
818.25	0.661
818.44	0.688
818.62	0.554
818.80	0.177
818.98	0.925
819.17	-0.199
819.35	0.297
819.53	-0.387
819.72	0.302
819.90	0.577
820.08	-0.077
820.26	0.000
820.45	-0.040
820.63	0.000
820.81	0.914
820.99	-0.180
821.18	0.039
821.36	0.880
821.54	-0.308
821.73	-0.368
821.91	0.480
822.09	0.777
822.27	-0.379
822.46	-0.513
822.64	0.506
822.82	0.474
823.00	0.466
823.19	0.021
823.37	-0.129
823.55	0.022
823.73	0.446
823.91	-0.227
824.10	0.092
824.28	-0.375
824.46	1.024
824.64	-0.476
824.83	0.467
825.01	0.263
825.19	0.000
825.37	0.289
825.56	0.068
825.74	0.439
825.92	0.407
826.10	-0.893
826.28	0.218
826.47	1.203
826.65	0.932
826.83	-0.905
827.01	0.872
827.19	-0.043
827.38	0.841
827.56	1.201
827.74	0.783
827.92	0.419
828.10	0.476
828.29	-0.665
828.47	1.284
828.65	-1.447
828.83	0.625
829.01	-0.740
829.20	0.127
829.38	-0.259
829.56	0.336
829.74	-0.696
829.92	2.075
830.10	0.782
830.29	-0.079
830.47	0.753
830.65	0.645
830.83	1.288
831.01	0.259
831.20	0.634
831.38	0.306
831.56	-0.125
831.74	0.026
831.92	0.721
832.10	0.499
832.29	0.541
832.47	1.533
832.65	0.417
832.83	-0.368
833.01	-0.222
833.19	0.682
833.37	-0.162
833.56	-0.028
833.74	-0.111
833.92	1.028
834.10	0.851
834.28	1.713
834.46	-1.058
834.64	-0.497
834.83	0.916
835.01	-0.767
835.19	-0.359
835.37	-0.915
835.55	0.247
835.73	0.574
835.91	-0.498
836.09	-0.219
836.28	0.467
836.46	1.291
836.64	-0.825
836.82	0.084
837.00	-0.731
837.18	-1.092
837.36	0.384
837.54	1.629
837.72	0.180
837.91	0.447
838.09	0.031
838.27	-0.910
838.45	0.222
838.63	2.175
838.81	-0.066
838.99	-0.945
839.17	1.533
839.35	1.446
839.53	0.440
839.72	-0.138
839.90	1.108
840.08	1.790
840.26	0.643
840.44	-0.101
840.62	-0.657
840.80	0.962
840.98	-0.273
841.16	0.766
841.34	0.557
841.52	-1.080
841.70	0.579
841.89	0.066
842.07	-1.543
842.25	-0.098
842.43	0.704
842.61	0.361
842.79	-0.103
842.97	-0.340
843.15	1.772
843.33	0.687
843.51	0.103
843.69	0.452
843.87	-0.475
844.05	1.313
844.23	0.037
844.41	1.208
844.59	1.236
844.77	-2.413
844.95	1.918
845.13	0.192
845.31	-0.261
845.50	0.378
845.68	-1.168
845.86	-3.455
846.04	-1.529
846.22	0.364
846.40	1.769
846.58	0.587
846.76	-0.187
846.94	0.437
847.12	-0.077
847.30	0.969
847.48	0.302
847.66	-0.115
847.84	0.000
848.02	0.705
848.20	0.155
848.38	1.054
848.56	-0.314
848.74	-0.118
848.92	-0.278
849.10	-0.785
849.28	0.815
849.46	0.532
849.64	0.081
849.82	2.035
850.00	-0.416
850.18	-1.284
850.36	1.622
850.54	-0.519
850.72	0.963
850.90	2.163
851.08	-0.166
851.26	0.790
851.44	0.356
851.62	1.344
851.80	-0.171
851.98	1.794
852.16	1.538
852.34	0.691
852.52	0.822
852.70	0.870
852.87	0.699
853.05	-0.777
853.23	-0.960
853.41	-1.277
853.59	0.080
853.77	0.581
853.95	0.417
854.13	1.866
854.31	0.998
854.49	0.645
854.67	-0.039
854.85	0.532
855.03	0.567
855.21	0.000
855.39	-1.850
855.57	0.712
855.75	0.382
855.93	-0.450
856.11	-1.597
856.28	0.873
856.46	0.439
856.64	0.041
856.82	0.200
857.00	-0.703
857.18	-0.278
857.36	0.080
857.54	0.679
857.72	2.009
857.90	1.802
858.08	0.000
858.26	-0.426
858.44	1.494
858.61	0.443
858.79	-0.720
858.97	0.192
859.15	0.038
859.33	-1.074
859.51	0.763
859.69	-0.188
859.87	0.000
860.05	-0.696
860.23	1.757
860.40	0.792
860.58	-1.425
860.76	2.569
860.94	0.187
861.12	0.797
861.30	0.572
861.48	0.225
861.66	0.113
861.84	0.230
862.01	0.272
862.19	2.164
862.37	0.000
862.55	0.692
862.73	0.688
862.91	1.664
863.09	2.766
863.27	1.701
863.44	1.255
863.62	0.587
863.80	1.723
863.98	1.878
864.16	2.225
864.34	0.483
864.52	1.132
864.69	1.991
864.87	2.036
865.05	0.815
865.23	2.795
865.41	1.747
865.59	3.272
865.76	1.803
865.94	2.440
866.12	1.871
866.30	2.987
866.48	1.297
866.66	1.676
866.83	1.177
867.01	2.659
867.19	1.211
867.37	0.611
867.55	2.731
867.73	-0.902
867.90	1.106
868.08	1.903
868.26	1.809
868.44	1.912
868.62	2.170
868.79	0.969
868.97	0.584
869.15	0.945
869.33	1.207
869.51	0.309
869.69	2.388
869.86	0.267
870.04	0.509
870.22	1.600
870.40	1.252
870.57	1.546
870.75	2.716
870.93	1.118
871.11	0.284
871.29	1.624
871.46	1.217
871.64	1.509
871.82	0.323
872.00	1.742
872.18	2.720
872.35	0.393
872.53	2.460
872.71	0.612
872.89	2.523
873.06	3.181
873.24	0.147
873.42	1.812
873.60	3.564
873.77	2.790
873.95	2.479
874.13	1.345
874.31	2.839
874.49	3.779
874.66	3.652
874.84	3.845
875.02	3.829
875.20	5.008
875.37	3.613
875.55	5.972
875.73	7.131
875.91	6.497
876.08	8.080
876.26	9.968
876.44	11.370
876.61	11.765
876.79	12.317
876.97	12.926
877.15	13.751
877.32	14.523
877.50	15.593
877.68	15.174
877.86	18.611
878.03	17.285
878.21	19.020
878.39	17.797
878.56	17.470
878.74	17.999
878.92	19.967
879.10	16.931
879.27	16.617
879.45	15.225
879.63	16.500
879.80	15.578
879.98	18.161
880.16	15.566
880.34	14.363
880.51	15.476
880.69	14.296
880.87	14.678
881.04	14.899
881.22	15.054
881.40	14.856
881.57	15.033
881.75	16.273
881.93	16.388
882.10	16.034
882.28	17.555
882.46	17.010
882.63	19.502
882.81	19.217
882.99	23.861
883.16	24.010
883.34	24.383
883.52	26.381
883.69	29.426
883.87	31.208
884.05	33.042
884.22	35.298
884.40	39.881
884.58	42.190
884.75	44.258
884.93	48.287
885.11	52.112
885.28	52.823
885.46	58.100
885.64	61.234
885.81	59.057
885.99	63.564
886.17	60.685
886.34	62.925
886.52	58.596
886.70	59.336
886.87	55.085
887.05	54.201
887.22	53.735
887.40	47.609
887.58	45.182
887.75	42.361
887.93	38.268
888.11	36.526
888.28	33.388
888.46	29.320
888.63	28.364
888.81	27.698
888.99	23.263
889.16	24.209
889.34	22.531
889.51	21.158
889.69	21.354
889.87	17.782
890.04	17.664
890.22	17.388
890.39	17.069
890.57	17.949
890.75	17.453
890.92	16.986
891.10	17.332
891.27	18.697
891.45	17.064
891.63	17.353
891.80	19.014
891.98	17.468
892.15	19.335
892.33	19.236
892.51	18.956
892.68	20.595
892.86	22.040
893.03	20.817
893.21	21.790
893.38	23.858
893.56	25.570
893.74	27.322
893.91	30.772
894.09	28.790
894.26	28.519
894.44	31.077
894.61	32.091
894.79	33.960
894.96	34.907
895.14	36.505
895.32	35.096
895.49	36.568
895.67	37.918
895.84	37.304
896.02	37.429
896.19	38.226
896.37	37.675
896.54	37.341
896.72	38.377
896.89	34.199
897.07	33.562
897.25	33.030
897.42	30.767
897.60	28.876
897.77	28.216
897.95	25.486
898.12	25.545
898.30	23.093
898.47	21.750
898.65	21.941
898.82	19.924
899.00	19.380
899.17	16.837
899.35	15.955
899.52	12.934
899.70	14.710
899.87	10.816
900.05	11.348
900.22	11.917
900.40	8.321
900.57	9.622
900.75	12.527
900.92	10.426
901.10	10.030
901.27	9.541
901.45	7.057
901.62	9.047
901.80	6.560
901.97	8.109
902.15	8.052
902.32	5.925
902.50	8.649
902.67	7.416
902.85	7.115
903.02	7.787
903.20	6.617
903.37	8.424
903.54	7.341
903.72	7.467
903.89	6.722
904.07	6.055
904.24	10.728
904.42	7.934
904.59	8.134
904.77	7.278
904.94	8.462
905.12	7.532
905.29	7.572
905.47	7.684
905.64	9.424
905.81	9.260
905.99	12.129
906.16	10.319
906.34	12.374
906.51	11.017
906.69	12.973
906.86	12.796
907.03	13.191
907.21	16.018
907.38	17.521
907.56	12.863
907.73	16.319
907.91	18.881
908.08	18.437
908.25	17.665
908.43	21.562
908.60	20.267
908.78	23.245
908.95	21.653
909.13	25.075
909.30	23.820
909.47	24.285
909.65	26.153
909.82	25.754
910.00	27.661
910.17	27.250
910.34	28.157
910.52	28.019
910.69	29.253
910.87	32.263
911.04	32.621
911.21	28.715
911.39	28.018
911.56	27.931
911.73	26.486
911.91	29.903
912.08	26.007
912.26	26.530
912.43	26.256
912.60	23.888
912.78	25.290
912.95	28.192
913.13	24.223
913.30	24.489
913.47	27.233
913.65	24.204
913.82	23.852
913.99	20.341
914.17	19.092
914.34	18.597
914.51	17.691
914.69	17.644
914.86	15.094
915.03	17.402
915.21	16.244
915.38	18.123
915.56	15.882
915.73	17.915
915.90	18.501
916.08	18.007
916.25	15.625
916.42	13.306
916.60	15.429
916.77	15.013
916.94	17.540
917.12	11.586
917.29	16.237
917.46	17.974
917.64	14.482
917.81	14.019
917.98	14.931
918.16	15.276
918.33	15.069
918.50	15.368
918.67	15.539
918.85	16.867
919.02	16.404
919.19	17.241
919.37	17.032
919.54	18.542
919.71	15.881
919.89	20.723
920.06	22.007
920.23	21.515
920.41	21.949
920.58	25.128
920.75	25.960
920.92	26.182
921.10	27.184
921.27	26.310
921.44	30.171
921.62	31.644
921.79	30.894
921.96	33.431
922.13	34.791
922.31	36.332
922.48	37.470
922.65	40.272
922.82	42.681
923.00	45.874
923.17	46.667
923.34	51.700
923.52	51.728
923.69	54.540
923.86	59.037
924.03	62.368
924.21	62.195
924.38	67.193
924.55	72.610
924.72	71.202
924.90	77.471
925.07	76.710
925.24	77.864
925.41	85.082
925.59	79.562
925.76	76.174
925.93	86.544
926.10	82.567
926.28	82.235
926.45	79.604
926.62	74.457
926.79	70.491
926.96	71.559
927.14	69.810
927.31	65.997
927.48	67.857
927.65	68.534
927.83	67.390
928.00	59.219
928.17	64.387
928.34	61.974
928.51	60.457
928.69	56.571
928.86	60.373
929.03	53.517
929.20	52.557
929.37	53.450
929.55	54.747
929.72	57.493
929.89	52.904
930.06	56.741
930.23	53.864
930.41	53.771
930.58	54.863
930.75	62.396
930.92	50.332
931.09	56.898
931.27	54.637
931.44	56.121
931.61	54.538
931.78	54.983
931.95	55.835
932.12	54.219
932.30	54.331
932.47	59.791
932.64	60.960
932.81	61.121
932.98	66.309
933.16	65.475
933.33	66.667
933.50	65.967
933.67	64.258
933.84	64.467
934.01	62.445
934.18	62.463
934.36	67.300
934.53	65.041
934.70	69.883
934.87	69.573
935.04	71.807
935.21	69.631
935.38	70.401
935.56	74.136
935.73	77.612
935.90	79.674
936.07	77.245
936.24	83.015
936.41	80.082
936.58	83.099
936.76	84.852
936.93	86.243
937.10	86.414
937.27	88.852
937.44	80.715
937.61	85.487
937.78	90.387
937.95	86.550
938.13	84.708
938.30	82.308
938.47	72.597
938.64	77.640
938.81	72.115
938.98	78.141
939.15	66.333
939.32	67.345
939.49	67.204
939.66	65.510
939.84	70.324
940.01	67.182
940.18	64.648
940.35	55.286
940.52	59.039
940.69	56.863
940.86	52.963
941.03	55.066
941.20	47.467
941.37	57.278
941.54	56.138
941.71	52.759
941.89	55.633
942.06	48.204
942.23	53.523
942.40	55.632
942.57	59.051
942.74	59.428
942.91	54.003
943.08	57.487
943.25	50.567
943.42	60.674
943.59	59.895
943.76	55.061
943.93	61.119
944.10	53.439
944.27	58.043
944.44	55.168
944.61	66.025
944.79	60.141
944.96	68.053
945.13	62.060
945.30	61.789
945.47	66.438
945.64	69.565
945.81	66.759
945.98	69.931
946.15	63.271
946.32	75.800
946.49	75.041
946.66	78.648
946.83	69.643
947.00	85.167
947.17	79.321
947.34	86.172
947.51	89.893
947.68	87.066
947.85	85.135
948.02	96.071
948.19	94.277
948.36	97.462
948.53	105.536
948.70	99.283
948.87	96.716
949.04	87.240
949.21	96.535
949.38	89.796
949.55	87.741
949.72	85.667
949.89	82.344
950.06	88.183
950.23	94.108
950.40	72.139
950.57	90.991
950.74	88.339
950.91	85.478
951.08	75.610
951.25	81.939
951.42	89.981
951.59	79.928
951.76	71.111
951.93	71.763
952.10	67.935
952.27	74.781
952.44	66.122
952.61	70.753
952.77	57.875
952.94	58.130
953.11	64.000
953.28	62.642
953.45	58.333
953.62	51.361
953.79	56.111
953.96	41.992
954.13	47.318
954.30	57.258
954.47	50.796
954.64	49.038
954.81	46.881
954.98	49.540
955.15	42.800
955.32	42.004
955.49	53.033
955.65	43.600
955.82	41.752
955.99	44.207
956.16	46.154
956.33	44.533
956.50	44.358
956.67	43.662
956.84	44.382
957.01	48.065
957.18	45.527
957.35	43.548
957.52	60.843
957.68	55.357
957.85	51.702
958.02	50.376
958.19	59.268
958.36	54.502
958.53	47.917
958.70	55.032
958.87	66.219
959.04	51.795
959.21	41.410
959.37	77.662
959.54	63.218
959.71	55.924
959.88	57.484
960.05	68.171
960.22	69.903
960.39	52.899
960.56	60.746
960.72	55.094
960.89	57.962
961.06	59.792
961.23	52.834
961.40	57.971
961.57	63.194
961.74	59.289
961.90	67.475
962.07	57.595
962.24	58.555
962.41	58.278
962.58	52.778
962.75	55.439
962.92	59.477
963.08	45.618
963.25	63.341
963.42	59.712
963.59	62.924
963.76	60.722
963.93	56.193
964.10	60.465
964.26	49.791
964.43	48.730
964.60	50.824
964.77	59.491
964.94	52.594
965.10	51.240
965.27	45.995
965.44	54.670
965.61	53.261
965.78	37.727
965.95	40.334
966.11	52.765
966.28	42.382
966.45	31.492
966.62	41.587
966.79	33.333
966.95	40.724
967.12	34.910
967.29	38.095
967.46	29.412
967.63	41.064
967.79	33.406
967.96	41.814
968.13	22.612
968.30	24.409
968.47	24.167
968.63	34.328
968.80	27.054
968.97	30.296
969.14	32.277
969.31	30.556
969.47	35.878
969.64	27.856
969.81	31.924
969.98	26.471
970.14	30.586
970.31	26.739
970.48	25.893
970.65	30.118
970.81	27.604
970.98	22.912
971.15	23.270
971.32	30.000
971.48	22.418
971.65	30.189
971.82	25.056
971.99	28.836
972.15	27.553
972.32	31.455
972.49	31.557
972.66	27.009
972.82	19.865
972.99	24.471
973.16	15.171
973.33	33.886
973.49	20.151
973.66	19.577
973.83	18.622
974.00	34.234
974.16	24.773
974.33	22.067
974.50	34.541
974.67	26.914
974.83	35.835
975.00	30.144
975.17	26.437
975.33	34.813
975.50	29.032
975.67	45.853
975.84	42.094
976.00	36.706
976.17	34.588
976.34	41.709
976.50	36.188
976.67	41.055
976.84	41.837
977.00	39.953
977.17	49.296
977.34	36.364
977.50	40.751
977.67	45.890
977.84	47.851
978.01	54.188
978.17	58.438
978.34	62.283
978.51	49.395
978.67	60.550
978.84	37.011
979.01	52.830
979.17	65.053
979.34	56.477
979.51	56.000
979.67	75.000
979.84	65.796
980.01	57.403
980.17	66.092
980.34	68.490
980.51	77.136
980.67	62.597
980.84	59.588
981.01	63.636
981.17	57.451
981.34	52.842
981.50	62.019
981.67	57.320
981.84	74.572
982.00	63.144
982.17	62.850
982.34	67.523
982.50	64.431
982.67	81.654
982.84	67.991
983.00	74.151
983.17	63.761
983.33	68.000
983.50	60.314
983.67	60.573
983.83	55.234
984.00	58.173
984.17	42.275
984.33	59.750
984.50	54.968
984.66	57.732
984.83	58.547
985.00	53.333
985.16	58.734
985.33	49.091
985.49	53.079
985.66	51.481
985.83	46.926
985.99	59.006
986.16	51.468
986.32	53.815
986.49	56.787
986.66	56.264
986.82	51.965
986.99	51.049
987.15	53.738
987.32	69.575
987.49	51.810
987.65	55.944
987.82	55.928
987.98	57.277
988.15	59.288
988.31	52.246
988.48	61.137
988.65	67.460
988.81	59.284
988.98	49.112
989.14	70.379
989.31	61.660
989.47	59.615
989.64	54.730
989.80	66.197
989.97	67.965
990.14	70.213
990.30	75.962
990.47	70.146
990.63	69.606
990.80	67.423
990.96	70.968
991.13	56.920
991.29	81.235
991.46	82.660
991.62	66.977
991.79	71.399
991.95	74.492
992.12	80.045
992.29	64.634
992.45	79.817
992.62	69.507
992.78	70.021
992.95	93.301
993.11	79.418
993.28	91.198
993.44	78.556
993.61	75.311
993.77	94.503
993.94	84.439
994.10	73.207
994.27	74.817
994.43	78.481
994.60	99.000
994.76	80.831
994.93	80.410
995.09	88.410
995.26	69.660
995.42	84.672
995.59	84.433
995.75	91.435
995.92	82.588
996.08	70.353
996.25	79.012
996.41	68.873
996.58	76.256
996.74	64.544
996.91	62.924
997.07	73.902
997.23	67.647
997.40	60.044
997.56	56.776
997.73	74.750
997.89	58.837
998.06	47.797
998.22	57.740
998.39	46.849
998.55	49.192
998.72	48.364
998.88	59.500
999.05	58.314
999.21	52.506
999.37	52.660
999.54	46.970
999.70	44.201
999.87	47.990
1000.03	54.338
1000.20	50.962
1000.36	41.727
1000.52	49.372
1000.69	43.838
1000.85	27.214
1001.02	37.443
1001.18	31.358
1001.35	48.620
1001.51	33.408
1001.67	36.748
1001.84	42.616
1002.00	40.336
1002.17	35.092
1002.33	40.281
1002.50	44.244
1002.66	39.100
1002.82	39.698
1002.99	44.267
1003.15	53.634
1003.32	53.383
1003.48	43.062
1003.64	39.695
1003.81	55.337
1003.97	52.511
1004.14	57.583
1004.30	53.808
1004.46	61.880
1004.63	38.745
1004.79	43.421
1004.95	44.987
1005.12	51.374
1005.28	55.497
1005.45	46.313
1005.61	63.325
1005.77	49.754
1005.94	54.933
1006.10	56.927
1006.26	48.441
1006.43	51.659
1006.59	57.022
1006.76	47.757
1006.92	49.176
1007.08	56.220
1007.25	56.733
1007.41	51.079
1007.57	55.392
1007.74	60.202
1007.90	72.938
1008.06	67.187
1008.23	72.051
1008.39	63.808
1008.55	70.737
1008.72	58.603
1008.88	61.333
1009.04	64.147
1009.21	72.554
1009.37	68.158
1009.53	61.631
1009.70	76.344
1009.86	65.608
1010.02	52.620
1010.19	61.143
1010.35	54.572
1010.51	59.427
1010.68	67.424
1010.84	70.079
1011.00	61.538
1011.17	61.219
1011.33	62.592
1011.49	53.390
1011.66	51.795
1011.82	54.731
1011.98	46.828
1012.14	62.192
1012.31	61.357
1012.47	39.130
1012.63	50.575
1012.80	56.614
1012.96	51.070
1013.12	54.444
1013.29	30.748
1013.45	45.170
1013.61	39.793
1013.77	44.444
1013.94	38.903
1014.10	43.636
1014.26	47.772
1014.43	44.231
1014.59	37.228
1014.75	28.238
1014.91	40.961
1015.08	25.908
1015.24	28.488
1015.40	31.000
1015.56	25.000
1015.73	32.099
1015.89	27.151
1016.05	23.934
1016.21	30.591
1016.38	21.448
1016.54	30.994
1016.70	22.941
1016.86	17.816
1017.03	19.346
1017.19	22.943
1017.35	12.972
1017.51	17.260
1017.68	34.805
1017.84	9.176
1018.00	28.982
1018.16	24.167
1018.33	31.742
1018.49	18.730
1018.65	17.984
1018.81	11.927
1018.97	11.615
1019.14	14.441
1019.30	21.813
1019.46	25.773
1019.62	1.562
1019.79	22.884
1019.95	26.992
1020.11	26.168
1020.27	25.246
1020.43	8.772
1020.60	25.758
1020.76	31.461
1020.92	26.050
1021.08	13.487
1021.24	19.876
1021.41	20.667
1021.57	33.333
1021.73	22.951
1021.89	26.645
1022.05	15.331
1022.21	28.611
1022.38	20.857
1022.54	29.513
1022.70	9.667
1022.86	27.954
1023.02	35.942
1023.19	29.934
1023.35	19.614
1023.51	22.756
1023.67	34.012
1023.83	33.206
1023.99	5.634
1024.16	25.000
1024.32	18.770
1024.48	22.695
1024.64	14.238
1024.80	19.858
1024.96	29.012
1025.12	26.019
1025.29	26.148
1025.45	34.643
1025.61	23.871
1025.77	4.693
1025.93	23.292
1026.09	22.780
1026.26	32.095
1026.42	37.295
1026.58	23.529
1026.74	14.118
1026.90	29.607
1027.06	16.172
1027.22	28.188
1027.38	23.404
1027.55	33.010
1027.71	34.593
1027.87	32.542
1028.03	30.279
1028.19	29.831
1028.35	36.162
1028.51	33.766
1028.67	38.783
1028.83	6.061
1029.00	32.414
1029.16	39.687
1029.32	27.068
1029.48	37.500
1029.64	39.344
1029.80	34.553
1029.96	55.556
1030.12	39.927
1030.28	22.807
1030.44	48.810
1030.61	36.709
1030.77	35.656
1030.93	44.444
1031.09	34.510
1031.25	37.056
1031.41	39.357
1031.57	32.068
1031.73	23.333
1031.89	64.664
1032.05	29.213
1032.21	22.857
1032.37	34.532
1032.53	38.202
1032.69	42.060
1032.86	29.808
1033.02	37.209
1033.18	29.231
1033.34	27.240
1033.50	25.389
1033.66	44.906
1033.82	45.421
1033.98	4.310
1034.14	32.719
1034.30	33.588
1034.46	27.444
1034.62	11.765
1034.78	42.647
1034.94	22.744
1035.10	18.932
1035.26	23.711
1035.42	38.079
1035.58	22.744
1035.74	44.813
1035.90	38.537
1036.06	29.588
1036.22	12.977
1036.38	14.978
1036.54	37.295
1036.70	44.167
1036.86	16.495
1037.02	57.509
1037.18	46.667
1037.34	27.778
1037.50	43.689
1037.66	6.316
1037.82	27.778
1037.98	38.351
1038.14	31.492
1038.30	34.231
1038.46	37.770
1038.62	29.108
1038.78	53.365
1038.94	60.591
1039.10	43.541
1039.26	53.017
1039.42	32.110
1039.58	39.645
1039.74	28.452
1039.90	34.500
1040.06	29.756
>>>>>End Processed Spectral Data<<<<<
