SpectraSuite Data File
++++++++++++++++++++++++++++++++++++
Date: Wed Jan 25 18:56:11 EET 2017
User: TheoProf
Dark Spectrum Present: Yes
Reference Spectrum Present: Yes
Number of Sampled Component Spectra: 1
Spectrometers: USB4C02475
Integration Time (usec): 64136 (USB4C02475)
Spectra Averaged: 1 (USB4C02475)
Boxcar Smoothing: 0 (USB4C02475)
Correct for Electrical Dark: No (USB4C02475)
Strobe/Lamp Enabled: No (USB4C02475)
Correct for Detector Non-linearity: No (USB4C02475)
Correct for Stray Light: No (USB4C02475)
Number of Pixels in Processed Spectrum: 3648
>>>>>Begin Processed Spectral Data<<<<<
344.91	216.667
345.13	216.667
345.35	216.667
345.57	321.429
345.79	1025.000
346.00	89.474
346.22	-1050.000
346.44	100.000
346.66	-640.000
346.87	62.069
347.09	920.000
347.31	97.826
347.53	-21.569
347.74	0.000
347.96	178.571
348.18	341.667
348.40	178.947
348.61	176.923
348.83	106.061
349.05	11.475
349.27	-16.667
349.48	-94.118
349.70	241.176
349.92	25.806
350.14	65.574
350.35	77.778
350.57	52.083
350.79	47.059
351.01	64.615
351.22	70.000
351.44	24.359
351.66	-190.000
351.87	-44.444
352.09	-387.500
352.31	-111.429
352.53	65.000
352.74	-31.034
352.96	64.000
353.18	97.561
353.40	900.000
353.61	45.238
353.83	354.545
354.05	20.000
354.26	51.515
354.48	-11.905
354.70	-10.526
354.92	11.538
355.13	41.379
355.35	26.415
355.57	-7.843
355.78	-6.452
356.00	104.167
356.22	95.890
356.44	-15.625
356.65	44.231
356.87	-3.846
357.09	26.000
357.30	-15.306
357.52	266.667
357.74	30.909
357.95	41.667
358.17	22.727
358.39	23.256
358.60	84.375
358.82	223.077
359.04	240.000
359.26	-17.647
359.47	-19.444
359.69	29.703
359.91	-15.000
360.12	-290.000
360.34	72.973
360.56	25.000
360.77	12.821
360.99	20.690
361.21	30.357
361.42	-114.894
361.64	50.000
361.86	-20.833
362.07	-2.439
362.29	38.636
362.51	25.000
362.72	161.538
362.94	103.077
363.16	27.273
363.37	50.000
363.59	96.000
363.81	-100.000
364.02	155.102
364.24	-84.615
364.46	-17.308
364.67	625.000
364.89	-96.970
365.11	-3.704
365.32	50.000
365.54	-368.421
365.76	34.483
365.97	60.606
366.19	-172.727
366.41	150.000
366.62	-108.571
366.84	314.286
367.05	-38.182
367.27	-72.727
367.49	6.452
367.70	-40.000
367.92	50.000
368.14	-57.143
368.35	-85.294
368.57	43.038
368.79	-1.887
369.00	104.082
369.22	-190.000
369.43	68.750
369.65	-5.000
369.87	85.714
370.08	-8.333
370.30	-440.000
370.51	-520.000
370.73	25.758
370.95	-165.385
371.16	29.630
371.38	62.500
371.60	633.333
371.81	86.842
372.03	69.565
372.24	775.000
372.46	79.310
372.68	-120.833
372.89	38.596
373.11	-6.780
373.32	100.000
373.54	-10.526
373.76	79.592
373.97	18.919
374.19	-87.179
374.40	-41.379
374.62	-9.375
374.84	0.000
375.05	7.407
375.27	46.000
375.48	-158.824
375.70	-31.034
375.92	57.692
376.13	33.333
376.35	4.762
376.56	157.143
376.78	68.182
376.99	-7.692
377.21	-34.884
377.43	-57.692
377.64	-2.597
377.86	-21.429
378.07	800.000
378.29	-9.091
378.51	3.704
378.72	23.288
378.94	-2.857
379.15	29.825
379.37	-62.000
379.58	93.750
379.80	31.250
380.01	34.211
380.23	-2.222
380.45	-44.737
380.66	-11.594
380.88	81.818
381.09	21.875
381.31	46.875
381.52	-191.304
381.74	51.579
381.95	-170.000
382.17	-50.000
382.39	-10.345
382.60	-9.524
382.82	212.000
383.03	-50.000
383.25	31.250
383.46	-189.474
383.68	-13.636
383.89	46.667
384.11	81.356
384.32	100.000
384.54	24.242
384.76	26.087
384.97	82.353
385.19	10.417
385.40	6.452
385.62	-31.034
385.83	-55.556
386.05	46.667
386.26	-7.407
386.48	19.672
386.69	9.877
386.91	0.000
387.12	16.923
387.34	-50.000
387.55	-194.444
387.77	39.726
387.98	14.706
388.20	2.632
388.41	25.714
388.63	66.000
388.84	32.353
389.06	16.667
389.27	45.545
389.49	36.923
389.70	15.686
389.92	-5.357
390.13	35.714
390.35	13.235
390.56	92.157
390.78	6.818
390.99	47.887
391.21	33.824
391.42	41.975
391.64	-5.000
391.85	108.333
392.07	-462.500
392.28	-18.033
392.50	-24.444
392.71	-6.452
392.93	18.966
393.14	9.434
393.36	10.377
393.57	-10.753
393.79	-3800.000
394.00	-33.333
394.22	-6.944
394.43	-8.602
394.65	6.452
394.86	-14.423
395.08	-7.595
395.29	25.882
395.50	12.195
395.72	54.839
395.93	33.083
396.15	33.065
396.36	47.126
396.58	20.870
396.79	52.703
397.01	64.062
397.22	-40.299
397.44	24.370
397.65	27.500
397.87	-37.838
398.08	5.983
398.29	-4.412
398.51	57.333
398.72	33.333
398.94	14.912
399.15	1.980
399.37	49.254
399.58	-24.468
399.80	43.137
400.01	22.619
400.22	2.778
400.44	25.556
400.65	-20.588
400.87	0.862
401.08	12.121
401.30	40.278
401.51	91.935
401.72	28.387
401.94	78.448
402.15	-19.828
402.37	2.830
402.58	11.111
402.80	27.397
403.01	-18.519
403.22	42.105
403.44	11.364
403.65	50.735
403.87	30.000
404.08	14.103
404.30	19.231
404.51	54.237
404.72	24.823
404.94	32.824
405.15	28.378
405.37	36.220
405.58	-51.429
405.79	-24.211
406.01	23.529
406.22	20.000
406.44	38.298
406.65	27.500
406.86	27.152
407.08	32.407
407.29	26.974
407.51	9.615
407.72	31.944
407.93	53.947
408.15	44.172
408.36	24.088
408.58	22.703
408.79	-1.408
409.00	26.452
409.22	7.650
409.43	36.170
409.64	33.594
409.86	16.667
410.07	22.785
410.29	37.383
410.50	19.492
410.71	25.490
410.93	11.765
411.14	14.724
411.35	30.065
411.57	14.458
411.78	14.201
412.00	46.154
412.21	39.726
412.42	41.317
412.64	3.030
412.85	43.860
413.06	14.220
413.28	46.667
413.49	37.681
413.70	31.638
413.92	44.828
414.13	41.964
414.34	26.178
414.56	38.037
414.77	28.235
414.98	34.031
415.20	36.416
415.41	29.444
415.63	51.754
415.84	29.902
416.05	35.652
416.27	18.636
416.48	29.098
416.69	35.135
416.91	22.705
417.12	43.229
417.33	25.316
417.55	38.372
417.76	12.644
417.97	20.000
418.19	45.290
418.40	28.571
418.61	30.672
418.83	29.412
419.04	26.126
419.25	45.082
419.46	40.175
419.68	28.571
419.89	27.273
420.10	37.657
420.32	31.474
420.53	32.129
420.74	44.615
420.96	39.044
421.17	32.806
421.38	35.632
421.60	35.000
421.81	33.750
422.02	36.398
422.23	57.261
422.45	45.185
422.66	26.250
422.87	34.351
423.09	46.696
423.30	53.241
423.51	51.292
423.73	72.294
423.94	60.554
424.15	54.054
424.36	47.500
424.58	36.332
424.79	35.974
425.00	42.606
425.22	38.000
425.43	50.362
425.64	36.039
425.85	39.271
426.07	28.391
426.28	30.479
426.49	40.221
426.71	33.041
426.92	42.899
427.13	41.914
427.34	48.182
427.56	56.250
427.77	44.531
427.98	33.065
428.19	44.402
428.41	49.147
428.62	38.014
428.83	42.061
429.04	36.646
429.26	38.348
429.47	50.154
429.68	36.308
429.89	39.583
430.11	31.510
430.32	39.314
430.53	36.190
430.74	35.404
430.96	37.958
431.17	32.194
431.38	30.968
431.59	27.523
431.81	29.570
432.02	35.112
432.23	31.591
432.44	30.513
432.66	44.693
432.87	33.131
433.08	29.861
433.29	39.086
433.51	46.324
433.72	47.073
433.93	33.566
434.14	29.577
434.35	28.571
434.57	24.528
434.78	33.012
434.99	41.810
435.20	39.612
435.42	39.959
435.63	45.203
435.84	39.384
436.05	42.681
436.26	33.205
436.48	29.720
436.69	41.702
436.90	35.317
437.11	33.706
437.32	33.194
437.54	35.967
437.75	42.744
437.96	42.116
438.17	42.959
438.38	49.398
438.60	41.045
438.81	32.932
439.02	30.040
439.23	41.111
439.44	25.586
439.66	33.929
439.87	31.783
440.08	36.983
440.29	30.039
440.50	21.553
440.72	21.383
440.93	20.677
441.14	19.312
441.35	18.023
441.56	13.904
441.77	24.959
441.99	16.418
442.20	13.978
442.41	11.270
442.62	16.552
442.83	15.878
443.04	13.912
443.26	9.091
443.47	16.541
443.68	8.923
443.89	7.919
444.10	12.545
444.31	-0.544
444.53	11.853
444.74	3.006
444.95	-2.351
445.16	-1.174
445.37	-3.236
445.58	6.290
445.80	2.100
446.01	8.885
446.22	6.667
446.43	12.577
446.64	2.450
446.85	1.985
447.06	6.401
447.28	6.140
447.49	11.321
447.70	6.269
447.91	3.318
448.12	5.467
448.33	2.069
448.54	-0.309
448.76	1.422
448.97	3.526
449.18	4.200
449.39	-0.919
449.60	6.461
449.81	4.762
450.02	0.141
450.23	5.859
450.45	-3.158
450.66	5.157
450.87	5.520
451.08	6.931
451.29	0.000
451.50	-0.395
451.71	-1.569
451.92	3.309
452.13	1.244
452.35	0.771
452.56	2.996
452.77	8.258
452.98	4.795
453.19	3.704
453.40	-2.625
453.61	3.758
453.82	6.218
454.03	7.607
454.25	-1.161
454.46	-1.068
454.67	2.033
454.88	4.845
455.09	2.247
455.30	-0.243
455.51	7.868
455.72	2.118
455.93	5.455
456.14	4.540
456.35	6.383
456.56	0.866
456.78	2.850
456.99	-1.119
457.20	2.658
457.41	3.145
457.62	2.577
457.83	1.429
458.04	0.939
458.25	1.658
458.46	1.007
458.67	4.869
458.88	0.852
459.09	-2.229
459.30	-0.778
459.51	1.060
459.73	3.298
459.94	0.877
460.15	2.045
460.36	4.440
460.57	4.050
460.78	0.273
460.99	1.310
461.20	1.110
461.41	1.793
461.62	2.097
461.83	0.087
462.04	0.686
462.25	1.060
462.46	4.909
462.67	0.937
462.88	7.972
463.09	4.181
463.30	-1.345
463.51	1.381
463.72	0.937
463.93	2.209
464.15	-2.431
464.36	2.126
464.57	-0.321
464.78	4.552
464.99	1.811
465.20	2.733
465.41	2.566
465.62	1.720
465.83	1.931
466.04	1.181
466.25	-0.542
466.46	5.639
466.67	0.518
466.88	-1.679
467.09	1.645
467.30	0.817
467.51	4.554
467.72	1.739
467.93	1.473
468.14	-1.030
468.35	2.452
468.56	3.442
468.77	1.689
468.98	1.088
469.19	0.126
469.40	1.168
469.61	-0.189
469.82	2.518
470.03	-1.595
470.24	-0.439
470.45	1.835
470.66	2.352
470.87	2.706
471.08	0.060
471.29	1.540
471.50	0.112
471.71	0.909
471.92	3.213
472.13	-0.166
472.34	0.114
472.55	-0.054
472.76	2.764
472.97	0.054
473.18	-0.271
473.39	1.882
473.60	-0.502
473.81	0.626
474.01	-0.889
474.22	4.500
474.43	-0.049
474.64	1.090
474.85	1.609
475.06	1.357
475.27	0.938
475.48	3.657
475.69	1.353
475.90	3.635
476.11	3.142
476.32	1.945
476.53	2.292
476.74	3.592
476.95	4.388
477.16	2.008
477.37	5.237
477.58	5.731
477.79	4.629
478.00	3.615
478.21	4.360
478.41	6.490
478.62	4.368
478.83	7.409
479.04	6.083
479.25	6.364
479.46	6.895
479.67	8.991
479.88	9.060
480.09	8.153
480.30	9.865
480.51	10.177
480.72	9.029
480.93	9.488
481.14	9.048
481.34	10.161
481.55	10.697
481.76	11.266
481.97	14.909
482.18	15.657
482.39	15.446
482.60	15.327
482.81	17.082
483.02	17.842
483.23	18.618
483.44	20.711
483.65	20.441
483.85	22.384
484.06	22.794
484.27	23.477
484.48	24.476
484.69	27.371
484.90	28.621
485.11	27.797
485.32	31.529
485.53	28.191
485.73	31.389
485.94	29.904
486.15	30.091
486.36	30.522
486.57	31.881
486.78	31.084
486.99	32.810
487.20	31.122
487.41	33.635
487.61	35.423
487.82	37.809
488.03	38.376
488.24	36.657
488.45	38.792
488.66	37.422
488.87	38.121
489.08	37.497
489.28	38.264
489.49	37.654
489.70	36.649
489.91	36.713
490.12	37.667
490.33	39.097
490.54	40.812
490.74	40.543
490.95	43.869
491.16	41.634
491.37	41.506
491.58	40.719
491.79	42.729
492.00	41.447
492.20	41.937
492.41	40.587
492.62	38.777
492.83	40.399
493.04	40.767
493.25	39.949
493.45	43.136
493.66	41.008
493.87	39.275
494.08	38.182
494.29	38.228
494.50	38.963
494.70	39.381
494.91	41.382
495.12	41.983
495.33	42.652
495.54	40.224
495.75	42.037
495.95	44.243
496.16	42.755
496.37	42.111
496.58	40.640
496.79	41.842
496.99	41.050
497.20	42.798
497.41	42.213
497.62	41.274
497.83	41.218
498.04	39.559
498.24	41.099
498.45	41.439
498.66	41.558
498.87	41.989
499.08	39.922
499.28	39.971
499.49	39.337
499.70	39.010
499.91	38.561
500.12	39.031
500.32	39.785
500.53	41.883
500.74	40.314
500.95	41.001
501.15	40.526
501.36	42.139
501.57	39.882
501.78	40.704
501.99	40.669
502.19	40.732
502.40	40.506
502.61	39.644
502.82	40.295
503.02	39.236
503.23	38.070
503.44	36.554
503.65	37.155
503.86	37.340
504.06	38.321
504.27	38.395
504.48	40.600
504.69	43.184
504.89	43.474
505.10	46.963
505.31	46.475
505.52	51.467
505.72	52.246
505.93	55.212
506.14	54.074
506.35	52.243
506.55	52.414
506.76	53.485
506.97	53.709
507.18	58.103
507.38	57.113
507.59	58.213
507.80	59.879
508.01	62.437
508.21	61.020
508.42	64.215
508.63	63.287
508.84	65.936
509.04	68.792
509.25	68.440
509.46	66.196
509.67	65.098
509.87	66.939
510.08	68.634
510.29	67.973
510.49	66.809
510.70	66.874
510.91	63.560
511.12	63.911
511.32	62.820
511.53	62.393
511.74	57.905
511.94	61.035
512.15	59.302
512.36	59.669
512.57	57.628
512.77	59.997
512.98	60.069
513.19	63.147
513.39	62.232
513.60	65.604
513.81	67.091
514.01	68.912
514.22	68.637
514.43	70.705
514.64	70.956
514.84	74.302
515.05	76.663
515.26	77.312
515.46	76.156
515.67	75.070
515.88	73.698
516.08	75.243
516.29	77.679
516.50	80.673
516.70	81.338
516.91	84.450
517.12	80.452
517.32	82.423
517.53	83.063
517.74	81.573
517.95	78.948
518.15	77.331
518.36	78.232
518.57	76.637
518.77	76.502
518.98	77.438
519.19	79.695
519.39	79.330
519.60	82.737
519.80	80.586
520.01	80.025
520.22	77.441
520.42	79.092
520.63	78.609
520.84	77.880
521.04	74.324
521.25	72.318
521.46	69.678
521.66	70.480
521.87	70.206
522.08	72.465
522.28	73.962
522.49	71.356
522.70	71.807
522.90	71.873
523.11	72.944
523.31	76.742
523.52	76.069
523.73	77.027
523.93	74.349
524.14	75.239
524.35	74.377
524.55	74.322
524.76	73.745
524.97	73.360
525.17	74.167
525.38	71.014
525.58	71.678
525.79	70.407
526.00	71.647
526.20	73.722
526.41	73.180
526.61	71.909
526.82	70.548
527.03	72.065
527.23	70.320
527.44	69.196
527.64	67.013
527.85	67.651
528.06	69.299
528.26	67.477
528.47	66.229
528.68	65.170
528.88	65.816
529.09	65.065
529.29	66.171
529.50	68.240
529.70	66.615
529.91	64.328
530.12	63.103
530.32	62.575
530.53	62.674
530.73	63.329
530.94	62.768
531.15	64.158
531.35	65.073
531.56	61.671
531.76	60.611
531.97	57.135
532.17	53.747
532.38	51.947
532.59	48.874
532.79	47.129
533.00	44.373
533.20	41.776
533.41	39.747
533.61	36.707
533.82	35.528
534.03	33.685
534.23	30.805
534.44	29.030
534.64	27.934
534.85	25.901
535.05	23.061
535.26	20.488
535.46	18.432
535.67	16.300
535.88	14.943
536.08	12.692
536.29	11.063
536.49	10.022
536.70	9.006
536.90	7.716
537.11	7.978
537.31	6.330
537.52	5.913
537.72	6.001
537.93	4.807
538.13	4.747
538.34	4.804
538.55	4.146
538.75	3.663
538.96	3.355
539.16	2.931
539.37	3.197
539.57	2.634
539.78	2.952
539.98	2.544
540.19	1.946
540.39	2.796
540.60	2.576
540.80	2.293
541.01	2.125
541.21	2.625
541.42	2.404
541.62	2.474
541.83	2.821
542.03	2.663
542.24	2.833
542.44	2.831
542.65	2.999
542.85	2.730
543.06	2.704
543.26	3.632
543.47	2.410
543.67	2.955
543.88	3.073
544.08	2.621
544.29	3.049
544.49	2.667
544.70	2.353
544.90	2.821
545.11	2.883
545.31	2.882
545.52	3.121
545.72	3.531
545.93	4.212
546.13	3.563
546.34	3.310
546.54	3.249
546.75	2.206
546.95	2.429
547.15	2.555
547.36	2.348
547.56	1.971
547.77	1.920
547.97	1.308
548.18	1.554
548.38	1.169
548.59	1.144
548.79	1.644
549.00	0.963
549.20	1.321
549.41	1.451
549.61	0.976
549.81	0.833
550.02	0.859
550.22	1.185
550.43	0.687
550.63	1.133
550.84	0.643
551.04	0.913
551.25	1.105
551.45	1.135
551.65	0.596
551.86	1.006
552.06	0.910
552.27	0.893
552.47	0.669
552.68	0.801
552.88	0.880
553.08	0.909
553.29	0.835
553.49	0.865
553.70	0.767
553.90	1.350
554.11	0.562
554.31	1.164
554.51	0.999
554.72	0.712
554.92	0.857
555.13	0.820
555.33	1.124
555.53	0.807
555.74	0.614
555.94	1.062
556.15	0.860
556.35	0.537
556.56	0.716
556.76	0.790
556.96	0.765
557.17	0.927
557.37	1.106
557.58	0.614
557.78	1.213
557.98	1.428
558.19	0.877
558.39	1.203
558.59	1.647
558.80	1.491
559.00	2.037
559.21	2.071
559.41	2.887
559.61	3.060
559.82	3.588
560.02	3.722
560.23	3.561
560.43	4.567
560.63	5.480
560.84	6.063
561.04	6.432
561.24	7.182
561.45	7.939
561.65	9.350
561.85	9.598
562.06	9.477
562.26	10.540
562.47	10.706
562.67	11.458
562.87	12.507
563.08	11.943
563.28	13.299
563.48	13.729
563.69	14.618
563.89	15.413
564.09	15.767
564.30	16.793
564.50	16.802
564.70	17.073
564.91	17.703
565.11	18.190
565.31	18.916
565.52	18.553
565.72	19.080
565.92	18.974
566.13	19.587
566.33	21.026
566.53	20.665
566.74	22.284
566.94	22.292
567.14	23.607
567.35	23.790
567.55	23.693
567.75	24.479
567.96	24.137
568.16	23.876
568.36	23.944
568.57	24.419
568.77	26.269
568.97	26.018
569.18	26.858
569.38	26.341
569.58	26.574
569.79	27.137
569.99	27.032
570.19	27.264
570.39	28.802
570.60	28.823
570.80	28.254
571.00	28.920
571.21	28.077
571.41	29.487
571.61	30.703
571.82	30.496
572.02	30.953
572.22	31.197
572.42	31.119
572.63	31.577
572.83	31.258
573.03	31.981
573.24	32.156
573.44	31.375
573.64	32.282
573.84	32.595
574.05	33.679
574.25	33.800
574.45	35.106
574.66	34.813
574.86	34.253
575.06	34.876
575.26	33.769
575.47	33.540
575.67	32.864
575.87	32.949
576.07	33.155
576.28	33.904
576.48	32.788
576.68	33.929
576.88	34.800
577.09	34.954
577.29	36.266
577.49	35.965
577.69	36.353
577.90	35.878
578.10	36.329
578.30	35.772
578.50	36.396
578.71	35.330
578.91	36.146
579.11	36.628
579.31	38.378
579.52	39.376
579.72	41.147
579.92	38.815
580.12	38.713
580.33	37.865
580.53	36.659
580.73	37.554
580.93	37.124
581.13	38.140
581.34	37.812
581.54	39.536
581.74	41.011
581.94	40.889
582.15	40.572
582.35	39.076
582.55	38.707
582.75	38.416
582.95	38.831
583.16	39.168
583.36	38.991
583.56	38.561
583.76	38.300
583.96	39.781
584.17	40.093
584.37	40.797
584.57	41.133
584.77	40.724
584.97	40.008
585.18	39.257
585.38	38.086
585.58	37.697
585.78	38.346
585.98	41.136
586.19	42.533
586.39	43.956
586.59	45.136
586.79	43.621
586.99	41.780
587.20	41.553
587.40	40.928
587.60	41.344
587.80	41.611
588.00	41.229
588.20	41.615
588.41	42.360
588.61	43.786
588.81	43.496
589.01	43.824
589.21	43.237
589.41	43.167
589.62	42.930
589.82	42.927
590.02	43.711
590.22	44.713
590.42	46.411
590.62	47.301
590.83	47.550
591.03	50.102
591.23	51.171
591.43	51.858
591.63	53.280
591.83	53.184
592.03	51.873
592.24	51.731
592.44	53.336
592.64	52.567
592.84	53.839
593.04	52.776
593.24	54.237
593.44	56.022
593.65	57.171
593.85	57.251
594.05	58.169
594.25	58.721
594.45	59.120
594.65	57.725
594.85	57.354
595.06	54.011
595.26	51.576
595.46	51.145
595.66	51.141
595.86	52.336
596.06	54.392
596.26	56.024
596.46	57.668
596.66	58.847
596.87	60.354
597.07	61.106
597.27	62.366
597.47	61.586
597.67	61.736
597.87	60.944
598.07	60.487
598.27	60.423
598.47	59.007
598.67	59.886
598.88	59.672
599.08	59.487
599.28	57.843
599.48	58.150
599.68	58.715
599.88	58.174
600.08	60.503
600.28	60.306
600.48	60.521
600.68	60.378
600.88	60.136
601.09	60.880
601.29	61.960
601.49	62.555
601.69	62.111
601.89	63.014
602.09	62.855
602.29	64.385
602.49	64.347
602.69	63.326
602.89	63.168
603.09	61.429
603.29	60.569
603.49	60.669
603.69	59.147
603.90	58.454
604.10	58.545
604.30	59.582
604.50	61.411
604.70	64.055
604.90	64.710
605.10	66.587
605.30	70.079
605.50	72.271
605.70	73.343
605.90	73.203
606.10	74.122
606.30	74.295
606.50	73.734
606.70	74.403
606.90	73.826
607.10	73.515
607.30	73.936
607.50	75.092
607.70	74.602
607.90	73.805
608.10	72.754
608.30	71.593
608.50	68.840
608.70	66.197
608.90	63.471
609.11	61.356
609.31	59.578
609.51	59.722
609.71	58.573
609.91	57.516
610.11	56.890
610.31	57.499
610.51	59.050
610.71	59.534
610.91	59.496
611.11	58.826
611.31	57.267
611.51	54.338
611.71	51.784
611.91	49.965
612.11	49.883
612.31	47.515
612.51	47.319
612.71	46.539
612.91	45.011
613.11	45.107
613.31	44.338
613.51	44.392
613.71	45.575
613.91	46.733
614.11	46.465
614.31	45.701
614.50	45.223
614.70	44.917
614.90	43.772
615.10	42.973
615.30	42.037
615.50	39.669
615.70	38.341
615.90	37.091
616.10	36.528
616.30	35.453
616.50	34.431
616.70	34.561
616.90	33.502
617.10	33.030
617.30	31.339
617.50	29.422
617.70	28.744
617.90	25.708
618.10	24.393
618.30	23.146
618.50	21.629
618.70	20.312
618.90	18.849
619.10	17.332
619.30	16.243
619.49	15.393
619.69	14.099
619.89	12.809
620.09	10.906
620.29	9.757
620.49	8.551
620.69	7.458
620.89	6.830
621.09	6.037
621.29	5.668
621.49	4.736
621.69	4.112
621.89	3.338
622.09	2.846
622.29	2.446
622.48	2.263
622.68	1.847
622.88	1.607
623.08	1.339
623.28	0.961
623.48	1.280
623.68	1.085
623.88	0.721
624.08	0.944
624.28	0.835
624.48	0.793
624.67	0.806
624.87	0.558
625.07	0.857
625.27	0.518
625.47	0.624
625.67	0.307
625.87	0.531
626.07	0.580
626.27	0.381
626.47	0.659
626.66	0.519
626.86	0.424
627.06	0.231
627.26	0.302
627.46	0.316
627.66	0.500
627.86	0.282
628.06	0.185
628.25	0.407
628.45	0.180
628.65	0.429
628.85	0.474
629.05	0.374
629.25	0.280
629.45	0.251
629.65	0.414
629.84	0.223
630.04	0.365
630.24	0.452
630.44	0.639
630.64	0.257
630.84	0.421
631.04	0.509
631.23	0.359
631.43	0.390
631.63	0.269
631.83	0.345
632.03	0.351
632.23	0.362
632.42	0.217
632.62	0.246
632.82	0.236
633.02	0.230
633.22	0.251
633.42	0.485
633.62	0.234
633.81	0.280
634.01	0.272
634.21	0.190
634.41	0.324
634.61	0.157
634.80	0.192
635.00	0.184
635.20	0.249
635.40	0.268
635.60	-0.018
635.80	0.187
635.99	0.269
636.19	0.050
636.39	0.122
636.59	0.205
636.79	0.311
636.98	0.118
637.18	0.137
637.38	0.230
637.58	0.104
637.78	0.259
637.97	0.068
638.17	0.203
638.37	0.189
638.57	0.161
638.77	0.151
638.96	0.234
639.16	0.080
639.36	-0.077
639.56	0.313
639.76	0.323
639.95	0.231
640.15	0.057
640.35	0.088
640.55	0.052
640.75	0.125
640.94	0.224
641.14	-0.117
641.34	0.117
641.54	0.249
641.73	0.066
641.93	-0.088
642.13	0.257
642.33	0.009
642.53	-0.304
642.72	0.177
642.92	0.226
643.12	0.302
643.32	0.274
643.51	-0.045
643.71	-0.085
643.91	0.053
644.11	-0.112
644.30	-0.026
644.50	-0.234
644.70	0.034
644.90	0.029
645.09	0.084
645.29	0.200
645.49	0.146
645.69	0.082
645.88	-0.022
646.08	0.065
646.28	0.013
646.48	0.004
646.67	0.071
646.87	0.278
647.07	0.064
647.26	-0.052
647.46	0.096
647.66	-0.044
647.86	-0.071
648.05	0.009
648.25	-0.005
648.45	-0.145
648.65	0.059
648.84	0.214
649.04	0.031
649.24	0.040
649.43	0.084
649.63	0.151
649.83	-0.057
650.03	-0.022
650.22	-0.043
650.42	-0.022
650.62	-0.040
650.81	0.173
651.01	-0.066
651.21	0.194
651.40	0.004
651.60	0.290
651.80	0.009
652.00	0.138
652.19	0.022
652.39	0.143
652.59	-0.069
652.78	0.022
652.98	0.135
653.18	0.046
653.37	0.017
653.57	-0.021
653.77	0.138
653.96	-0.017
654.16	0.119
654.36	0.040
654.55	0.123
654.75	0.053
654.95	0.156
655.14	0.000
655.34	-0.089
655.54	-0.033
655.73	0.186
655.93	-0.021
656.13	-0.094
656.32	-0.038
656.52	0.085
656.72	0.038
656.91	0.064
657.11	-0.051
657.31	-0.013
657.50	-0.116
657.70	-0.144
657.90	0.075
658.09	0.132
658.29	0.159
658.49	-0.154
658.68	0.067
658.88	-0.211
659.07	-0.041
659.27	0.083
659.47	0.141
659.66	-0.099
659.86	-0.031
660.06	0.183
660.25	0.009
660.45	-0.055
660.64	0.174
660.84	0.021
661.04	-0.100
661.23	-0.116
661.43	0.033
661.63	0.110
661.82	0.088
662.02	0.114
662.21	0.089
662.41	0.107
662.61	-0.038
662.80	0.004
663.00	0.085
663.19	0.140
663.39	-0.105
663.59	-0.166
663.78	0.034
663.98	-0.198
664.17	-0.040
664.37	0.031
664.57	-0.134
664.76	-0.136
664.96	-0.041
665.15	-0.008
665.35	0.028
665.55	0.067
665.74	-0.139
665.94	0.056
666.13	0.060
666.33	0.012
666.53	0.126
666.72	0.200
666.92	0.063
667.11	0.064
667.31	0.067
667.50	0.004
667.70	-0.038
667.90	-0.082
668.09	0.035
668.29	0.031
668.48	-0.044
668.68	0.088
668.87	-0.065
669.07	-0.004
669.26	0.139
669.46	0.059
669.66	-0.119
669.85	0.013
670.05	-0.150
670.24	0.081
670.44	0.157
670.63	0.094
670.83	0.093
671.02	0.004
671.22	0.219
671.42	-0.080
671.61	0.000
671.81	-0.111
672.00	-0.013
672.20	0.059
672.39	0.000
672.59	0.143
672.78	-0.045
672.98	-0.099
673.17	-0.094
673.37	-0.124
673.56	0.171
673.76	0.021
673.95	-0.025
674.15	-0.137
674.34	0.079
674.54	-0.107
674.73	0.103
674.93	-0.004
675.13	-0.136
675.32	-0.264
675.52	-0.163
675.71	-0.185
675.91	-0.094
676.10	0.049
676.30	-0.036
676.49	-0.096
676.69	-0.040
676.88	0.041
677.08	-0.156
677.27	-0.066
677.47	0.025
677.66	-0.021
677.86	0.167
678.05	-0.048
678.24	-0.060
678.44	-0.173
678.63	-0.217
678.83	0.024
679.02	0.104
679.22	0.048
679.41	0.012
679.61	-0.055
679.80	-0.103
680.00	-0.030
680.19	-0.069
680.39	-0.192
680.58	-0.038
680.78	0.118
680.97	-0.182
681.17	-0.079
681.36	0.096
681.56	-0.066
681.75	0.101
681.94	-0.187
682.14	-0.158
682.33	-0.059
682.53	-0.259
682.72	0.066
682.92	0.091
683.11	-0.130
683.31	-0.182
683.50	0.036
683.69	-0.032
683.89	-0.077
684.08	-0.073
684.28	-0.186
684.47	-0.208
684.67	-0.115
684.86	0.152
685.06	-0.139
685.25	-0.140
685.44	-0.165
685.64	-0.156
685.83	-0.033
686.03	-0.126
686.22	-0.024
686.42	0.016
686.61	-0.139
686.80	-0.025
687.00	-0.075
687.19	-0.100
687.39	0.012
687.58	0.103
687.77	0.106
687.97	0.000
688.16	0.136
688.36	-0.138
688.55	-0.216
688.74	0.042
688.94	-0.138
689.13	-0.117
689.33	0.008
689.52	0.075
689.71	-0.053
689.91	-0.072
690.10	0.040
690.30	-0.144
690.49	0.053
690.68	-0.213
690.88	-0.148
691.07	0.034
691.27	-0.128
691.46	-0.219
691.65	0.039
691.85	-0.013
692.04	0.102
692.23	0.079
692.43	0.009
692.62	0.027
692.82	0.079
693.01	0.084
693.20	-0.058
693.40	-0.032
693.59	-0.056
693.78	-0.012
693.98	-0.091
694.17	-0.044
694.36	-0.128
694.56	-0.219
694.75	-0.207
694.94	0.016
695.14	-0.029
695.33	0.045
695.53	-0.117
695.72	-0.144
695.91	0.064
696.11	0.072
696.30	-0.051
696.49	-0.051
696.69	-0.064
696.88	-0.042
697.07	0.064
697.27	-0.033
697.46	-0.123
697.65	0.153
697.85	0.116
698.04	0.096
698.23	0.024
698.43	0.004
698.62	0.037
698.81	0.077
699.01	0.082
699.20	-0.012
699.39	0.090
699.58	0.330
699.78	0.045
699.97	0.124
700.16	-0.004
700.36	-0.146
700.55	0.076
700.74	0.083
700.94	0.228
701.13	0.063
701.32	0.017
701.52	0.029
701.71	0.033
701.90	-0.119
702.09	0.143
702.29	0.033
702.48	0.281
702.67	-0.004
702.87	-0.130
703.06	0.049
703.25	0.173
703.44	-0.032
703.64	-0.180
703.83	0.152
704.02	0.150
704.22	0.215
704.41	0.205
704.60	0.084
704.79	0.066
704.99	0.107
705.18	0.105
705.37	0.061
705.56	0.222
705.76	0.194
705.95	0.179
706.14	0.025
706.33	-0.046
706.53	0.147
706.72	0.146
706.91	0.076
707.11	0.221
707.30	0.111
707.49	0.206
707.68	-0.087
707.88	0.048
708.07	0.126
708.26	0.221
708.45	0.242
708.64	0.175
708.84	0.117
709.03	0.104
709.22	0.403
709.41	0.212
709.61	0.185
709.80	0.117
709.99	0.242
710.18	0.310
710.38	-0.039
710.57	0.291
710.76	0.377
710.95	0.337
711.14	0.351
711.34	0.258
711.53	0.291
711.72	0.325
711.91	0.266
712.11	0.609
712.30	0.512
712.49	0.452
712.68	0.561
712.87	0.355
713.07	0.557
713.26	0.331
713.45	0.473
713.64	0.473
713.83	0.530
714.03	0.661
714.22	0.344
714.41	0.398
714.60	0.298
714.79	0.487
714.99	0.443
715.18	0.572
715.37	0.426
715.56	0.545
715.75	0.594
715.94	0.753
716.14	0.607
716.33	0.463
716.52	0.371
716.71	0.603
716.90	0.693
717.10	0.654
717.29	0.631
717.48	0.534
717.67	0.584
717.86	0.611
718.05	0.401
718.24	0.402
718.44	0.607
718.63	0.455
718.82	0.652
719.01	0.633
719.20	0.695
719.39	0.638
719.59	0.492
719.78	0.991
719.97	0.922
720.16	1.007
720.35	1.066
720.54	1.383
720.73	1.250
720.93	1.866
721.12	1.525
721.31	1.728
721.50	1.891
721.69	1.664
721.88	1.920
722.07	2.016
722.27	2.281
722.46	1.899
722.65	2.195
722.84	2.386
723.03	2.627
723.22	2.294
723.41	2.659
723.60	2.603
723.79	2.760
723.99	2.953
724.18	2.812
724.37	2.818
724.56	2.906
724.75	3.119
724.94	3.192
725.13	3.148
725.32	3.127
725.51	3.166
725.71	3.187
725.90	3.293
726.09	3.295
726.28	3.409
726.47	3.227
726.66	3.263
726.85	3.347
727.04	3.433
727.23	3.330
727.42	3.573
727.61	3.204
727.81	3.463
728.00	3.531
728.19	3.479
728.38	3.343
728.57	3.790
728.76	3.739
728.95	4.009
729.14	4.126
729.33	4.141
729.52	4.478
729.71	4.392
729.90	4.629
730.09	5.062
730.28	5.302
730.48	5.878
730.67	6.445
730.86	6.751
731.05	7.695
731.24	8.268
731.43	8.592
731.62	9.000
731.81	10.064
732.00	10.159
732.19	10.598
732.38	11.636
732.57	12.141
732.76	12.587
732.95	12.991
733.14	13.571
733.33	13.902
733.52	14.863
733.71	15.624
733.90	15.257
734.09	16.232
734.28	16.650
734.47	17.536
734.66	18.091
734.85	19.354
735.04	20.407
735.23	21.613
735.42	21.859
735.61	22.682
735.81	23.173
736.00	23.406
736.19	23.485
736.38	23.859
736.57	24.295
736.76	24.451
736.95	24.507
737.14	24.412
737.33	24.759
737.52	24.098
737.71	24.640
737.90	24.946
738.09	25.269
738.28	26.181
738.47	26.619
738.66	26.510
738.85	26.490
739.04	27.051
739.22	27.306
739.41	27.754
739.60	27.202
739.79	27.759
739.98	26.836
740.17	26.762
740.36	26.584
740.55	26.302
740.74	25.869
740.93	26.157
741.12	26.523
741.31	27.768
741.50	27.130
741.69	27.218
741.88	27.637
742.07	27.689
742.26	27.973
742.45	27.960
742.64	28.152
742.83	28.365
743.02	28.129
743.21	29.242
743.40	29.023
743.59	29.529
743.78	30.178
743.97	31.121
744.16	31.963
744.34	32.740
744.53	32.867
744.72	32.163
744.91	31.818
745.10	31.693
745.29	31.659
745.48	31.471
745.67	30.897
745.86	30.598
746.05	30.498
746.24	29.604
746.43	29.393
746.62	29.923
746.81	29.515
747.00	29.449
747.18	29.499
747.37	28.926
747.56	28.376
747.75	29.031
747.94	30.240
748.13	30.193
748.32	29.963
748.51	30.860
748.70	30.649
748.89	30.546
749.08	29.800
749.26	29.643
749.45	29.286
749.64	29.989
749.83	30.806
750.02	30.967
750.21	30.934
750.40	31.081
750.59	31.292
750.78	31.412
750.96	31.200
751.15	30.759
751.34	29.635
751.53	29.402
751.72	29.004
751.91	27.684
752.10	27.417
752.29	27.251
752.47	26.528
752.66	26.640
752.85	26.454
753.04	26.573
753.23	26.533
753.42	25.660
753.61	25.357
753.80	24.315
753.98	23.409
754.17	22.675
754.36	22.550
754.55	21.604
754.74	22.899
754.93	21.807
755.12	21.278
755.30	22.130
755.49	20.731
755.68	19.221
755.87	18.709
756.06	18.019
756.25	17.205
756.43	16.966
756.62	17.763
756.81	16.577
757.00	16.599
757.19	16.186
757.38	16.353
757.56	16.543
757.75	16.873
757.94	17.070
758.13	16.812
758.32	17.280
758.51	16.900
758.69	17.028
758.88	17.257
759.07	17.153
759.26	17.052
759.45	17.349
759.63	17.515
759.82	18.201
760.01	18.879
760.20	19.417
760.39	20.306
760.57	21.351
760.76	21.365
760.95	22.291
761.14	21.705
761.33	22.166
761.51	22.602
761.70	23.003
761.89	23.180
762.08	23.604
762.27	23.366
762.45	23.086
762.64	23.713
762.83	23.845
763.02	24.579
763.21	25.375
763.39	25.458
763.58	25.144
763.77	25.284
763.96	24.388
764.14	24.577
764.33	24.597
764.52	25.907
764.71	24.907
764.89	24.543
765.08	24.033
765.27	21.719
765.46	21.343
765.65	22.528
765.83	21.810
766.02	21.196
766.21	20.650
766.40	19.890
766.58	20.765
766.77	20.906
766.96	20.744
767.15	20.456
767.33	20.849
767.52	20.596
767.71	19.019
767.90	19.273
768.08	20.136
768.27	19.170
768.46	18.495
768.64	18.535
768.83	18.749
769.02	19.106
769.21	17.539
769.39	17.930
769.58	17.457
769.77	19.044
769.96	19.157
770.14	17.816
770.33	18.596
770.52	17.600
770.70	16.633
770.89	16.953
771.08	16.993
771.27	18.865
771.45	17.531
771.64	18.826
771.83	17.748
772.01	17.964
772.20	20.135
772.39	20.329
772.57	21.461
772.76	22.888
772.95	23.317
773.14	23.432
773.32	23.095
773.51	24.005
773.70	23.245
773.88	27.130
774.07	25.476
774.26	24.753
774.44	25.664
774.63	25.038
774.82	26.215
775.00	26.560
775.19	25.741
775.38	26.450
775.56	25.577
775.75	26.679
775.94	26.995
776.12	27.511
776.31	28.107
776.50	27.345
776.68	28.040
776.87	28.546
777.06	27.585
777.24	27.834
777.43	28.404
777.62	28.278
777.80	28.043
777.99	29.136
778.18	29.057
778.36	28.616
778.55	28.722
778.74	28.545
778.92	29.653
779.11	31.101
779.29	29.965
779.48	31.182
779.67	30.217
779.85	28.974
780.04	29.620
780.23	29.298
780.41	29.265
780.60	27.204
780.79	26.927
780.97	26.422
781.16	27.001
781.34	25.343
781.53	26.652
781.72	25.000
781.90	25.463
782.09	26.480
782.28	26.501
782.46	27.795
782.65	26.439
782.83	27.506
783.02	28.276
783.21	27.699
783.39	29.818
783.58	26.587
783.76	28.610
783.95	27.327
784.14	27.561
784.32	27.821
784.51	27.728
784.69	28.081
784.88	27.149
785.06	29.385
785.25	29.665
785.44	28.516
785.62	29.457
785.81	31.423
785.99	31.391
786.18	30.148
786.37	30.204
786.55	33.346
786.74	32.667
786.92	34.447
787.11	34.870
787.29	35.617
787.48	36.172
787.67	36.217
787.85	37.802
788.04	38.279
788.22	39.391
788.41	37.533
788.59	38.687
788.78	37.840
788.96	40.566
789.15	40.486
789.34	41.525
789.52	39.302
789.71	40.982
789.89	40.810
790.08	39.758
790.26	40.116
790.45	37.871
790.63	39.893
790.82	38.819
791.00	40.196
791.19	40.917
791.38	41.135
791.56	42.562
791.75	42.346
791.93	43.114
792.12	43.946
792.30	42.581
792.49	43.625
792.67	43.926
792.86	42.955
793.04	44.394
793.23	44.456
793.41	44.589
793.60	47.008
793.78	47.869
793.97	47.837
794.15	48.305
794.34	48.036
794.52	49.411
794.71	48.313
794.89	46.706
795.08	44.860
795.26	45.558
795.45	44.642
795.63	45.493
795.82	42.642
796.00	42.726
796.19	44.005
796.37	45.978
796.56	47.075
796.74	45.192
796.93	48.505
797.11	46.213
797.30	47.301
797.48	46.638
797.67	46.720
797.85	45.608
798.04	43.745
798.22	45.104
798.41	44.852
798.59	45.474
798.77	43.877
798.96	42.705
799.14	41.980
799.33	42.887
799.51	41.274
799.70	41.266
799.88	42.394
800.07	40.687
800.25	39.704
800.44	38.882
800.62	38.894
800.80	38.577
800.99	38.500
801.17	36.911
801.36	37.122
801.54	36.283
801.73	35.964
801.91	34.953
802.10	34.367
802.28	36.283
802.46	35.548
802.65	34.934
802.83	35.659
803.02	35.062
803.20	35.411
803.39	34.862
803.57	36.506
803.75	36.644
803.94	36.704
804.12	36.913
804.31	37.851
804.49	38.667
804.67	40.466
804.86	40.416
805.04	42.160
805.23	43.574
805.41	44.238
805.59	42.039
805.78	42.348
805.96	41.236
806.15	40.695
806.33	41.215
806.51	40.487
806.70	40.454
806.88	40.789
807.07	41.882
807.25	42.130
807.43	41.323
807.62	42.335
807.80	42.643
807.99	40.891
808.17	41.083
808.35	41.398
808.54	40.928
808.72	39.159
808.90	39.380
809.09	39.357
809.27	39.161
809.46	40.404
809.64	39.482
809.82	40.698
810.01	39.478
810.19	41.580
810.37	40.048
810.56	39.937
810.74	39.467
810.92	38.345
811.11	38.092
811.29	38.488
811.48	38.970
811.66	39.228
811.84	39.133
812.03	39.597
812.21	38.895
812.39	37.925
812.58	37.679
812.76	37.205
812.94	36.067
813.13	38.476
813.31	37.800
813.49	36.731
813.68	37.241
813.86	35.780
814.04	34.754
814.23	33.693
814.41	33.644
814.59	32.622
814.78	33.422
814.96	33.407
815.14	33.901
815.33	33.399
815.51	33.508
815.69	33.344
815.87	33.813
816.06	34.217
816.24	35.320
816.42	38.167
816.61	37.648
816.79	40.042
816.97	39.902
817.16	41.207
817.34	41.152
817.52	40.646
817.70	41.231
817.89	41.338
818.07	40.908
818.25	41.688
818.44	40.087
818.62	40.675
818.80	42.197
818.98	42.265
819.17	41.935
819.35	43.670
819.53	42.749
819.72	44.826
819.90	45.222
820.08	44.288
820.26	46.497
820.45	46.828
820.63	44.789
820.81	46.573
820.99	46.371
821.18	46.260
821.36	44.199
821.54	42.907
821.73	44.694
821.91	45.413
822.09	43.495
822.27	42.786
822.46	45.307
822.64	43.875
822.82	42.218
823.00	43.893
823.19	45.730
823.37	45.502
823.55	44.767
823.73	47.203
823.91	47.536
824.10	46.656
824.28	48.758
824.46	48.086
824.64	46.297
824.83	47.531
825.01	47.600
825.19	45.144
825.37	46.182
825.56	42.484
825.74	43.435
825.92	40.605
826.10	40.031
826.28	38.495
826.47	37.169
826.65	37.500
826.83	35.269
827.01	36.756
827.19	36.634
827.38	35.895
827.56	36.566
827.74	40.083
827.92	39.515
828.10	41.679
828.29	40.749
828.47	42.964
828.65	44.472
828.83	44.565
829.01	44.721
829.20	47.376
829.38	48.849
829.56	48.798
829.74	48.480
829.92	49.469
830.10	48.279
830.29	50.774
830.47	50.883
830.65	51.664
830.83	51.417
831.01	51.695
831.20	51.686
831.38	51.864
831.56	49.435
831.74	52.832
831.92	52.227
832.10	54.343
832.29	58.027
832.47	57.973
832.65	58.598
832.83	58.742
833.01	58.949
833.19	58.199
833.37	56.506
833.56	61.215
833.74	58.982
833.92	59.294
834.10	58.747
834.28	57.226
834.46	58.252
834.64	56.393
834.83	56.792
835.01	55.190
835.19	57.474
835.37	57.594
835.55	55.788
835.73	56.682
835.91	55.826
836.09	57.186
836.28	58.507
836.46	59.203
836.64	58.374
836.82	55.988
837.00	55.918
837.18	57.861
837.36	61.400
837.54	58.205
837.72	62.792
837.91	60.394
838.09	62.500
838.27	64.021
838.45	66.603
838.63	66.634
838.81	63.257
838.99	64.463
839.17	63.752
839.35	66.963
839.53	68.822
839.72	67.346
839.90	64.439
840.08	63.000
840.26	62.817
840.44	60.168
840.62	59.744
840.80	62.496
840.98	61.168
841.16	59.880
841.34	61.297
841.52	57.394
841.70	58.172
841.89	57.639
842.07	56.173
842.25	53.871
842.43	51.985
842.61	53.775
842.79	52.862
842.97	51.139
843.15	50.324
843.33	50.532
843.51	51.394
843.69	53.699
843.87	52.412
844.05	51.438
844.23	52.980
844.41	52.325
844.59	54.082
844.77	51.282
844.95	49.831
845.13	53.858
845.31	48.493
845.50	54.408
845.68	51.012
845.86	50.272
846.04	49.618
846.22	49.508
846.40	51.363
846.58	51.687
846.76	51.381
846.94	51.365
847.12	50.963
847.30	49.310
847.48	48.567
847.66	49.962
847.84	48.201
848.02	47.773
848.20	50.657
848.38	50.941
848.56	51.101
848.74	52.422
848.92	50.318
849.10	50.746
849.28	51.997
849.46	49.263
849.64	50.142
849.82	52.035
850.00	52.936
850.18	48.177
850.36	48.337
850.54	46.826
850.72	49.057
850.90	48.211
851.08	48.839
851.26	49.688
851.44	45.160
851.62	46.987
851.80	50.107
851.98	47.810
852.16	52.499
852.34	50.151
852.52	47.864
852.70	46.788
852.87	48.355
853.05	44.558
853.23	42.520
853.41	44.316
853.59	42.274
853.77	41.113
853.95	42.577
854.13	43.083
854.31	38.244
854.49	38.050
854.67	35.806
854.85	36.764
855.03	35.161
855.21	35.912
855.39	34.927
855.57	35.955
855.75	36.350
855.93	35.444
856.11	33.541
856.28	40.333
856.46	37.719
856.64	37.292
856.82	38.010
857.00	37.800
857.18	36.859
857.36	34.992
857.54	35.771
857.72	35.368
857.90	35.199
858.08	34.645
858.26	34.843
858.44	34.215
858.61	34.207
858.79	33.667
858.97	35.344
859.15	34.379
859.33	35.698
859.51	35.406
859.69	35.385
859.87	34.012
860.05	31.891
860.23	34.297
860.40	34.113
860.58	31.250
860.76	35.319
860.94	35.120
861.12	34.070
861.30	35.507
861.48	33.947
861.66	35.739
861.84	33.423
862.01	36.777
862.19	37.092
862.37	39.557
862.55	36.794
862.73	39.969
862.91	40.166
863.09	39.551
863.27	39.269
863.44	39.262
863.62	36.904
863.80	38.636
863.98	37.992
864.16	41.565
864.34	38.210
864.52	40.066
864.69	41.564
864.87	42.130
865.05	43.551
865.23	42.251
865.41	42.751
865.59	43.766
865.76	40.213
865.94	45.921
866.12	44.407
866.30	45.538
866.48	46.491
866.66	43.060
866.83	45.423
867.01	45.243
867.19	44.200
867.37	44.305
867.55	44.590
867.73	41.270
867.90	41.085
868.08	42.690
868.26	43.720
868.44	44.405
868.62	44.137
868.79	43.898
868.97	44.964
869.15	46.310
869.33	47.378
869.51	49.884
869.69	45.944
869.86	45.704
870.04	50.391
870.22	49.442
870.40	48.349
870.57	46.606
870.75	46.432
870.93	45.417
871.11	43.506
871.29	46.554
871.46	42.857
871.64	44.648
871.82	41.147
872.00	44.340
872.18	42.836
872.35	44.076
872.53	44.826
872.71	41.382
872.89	43.106
873.06	42.697
873.24	42.198
873.42	41.972
873.60	41.685
873.77	40.786
873.95	41.620
874.13	40.850
874.31	42.544
874.49	39.642
874.66	41.776
874.84	41.324
875.02	41.492
875.20	44.113
875.37	40.935
875.55	43.233
875.73	43.685
875.91	46.224
876.08	45.942
876.26	49.737
876.44	53.667
876.61	52.472
876.79	50.482
876.97	49.896
877.15	51.265
877.32	49.550
877.50	48.138
877.68	48.872
877.86	48.507
878.03	48.181
878.21	48.818
878.39	50.136
878.56	50.564
878.74	50.313
878.92	51.538
879.10	50.017
879.27	48.654
879.45	47.451
879.63	48.022
879.80	48.515
879.98	50.066
880.16	48.181
880.34	48.455
880.51	49.712
880.69	48.351
880.87	48.961
881.04	46.309
881.22	46.410
881.40	46.685
881.57	46.365
881.75	47.139
881.93	47.458
882.10	46.577
882.28	49.075
882.46	44.389
882.63	46.984
882.81	45.769
882.99	46.789
883.16	42.026
883.34	42.862
883.52	43.713
883.69	40.611
883.87	42.629
884.05	42.621
884.22	41.254
884.40	38.972
884.58	41.973
884.75	40.472
884.93	41.900
885.11	41.335
885.28	43.225
885.46	43.850
885.64	44.166
885.81	43.300
885.99	44.584
886.17	43.691
886.34	48.017
886.52	43.584
886.70	46.876
886.87	45.413
887.05	43.125
887.22	46.781
887.40	43.664
887.58	43.718
887.75	44.755
887.93	42.994
888.11	44.122
888.28	44.834
888.46	42.694
888.63	43.208
888.81	43.200
888.99	43.921
889.16	43.094
889.34	44.935
889.51	45.383
889.69	46.709
889.87	44.583
890.04	48.504
890.22	47.996
890.39	47.568
890.57	48.043
890.75	48.172
890.92	49.144
891.10	47.190
891.27	49.615
891.45	47.512
891.63	50.461
891.80	50.751
891.98	47.873
892.15	47.515
892.33	49.062
892.51	48.073
892.68	46.612
892.86	45.418
893.03	46.017
893.21	46.740
893.38	45.867
893.56	43.641
893.74	46.512
893.91	48.782
894.09	44.702
894.26	41.857
894.44	45.430
894.61	44.814
894.79	39.669
894.96	40.160
895.14	39.688
895.32	40.522
895.49	40.866
895.67	37.851
895.84	39.386
896.02	38.495
896.19	38.898
896.37	38.075
896.54	39.585
896.72	38.685
896.89	40.944
897.07	38.230
897.25	41.650
897.42	39.281
897.60	39.880
897.77	39.385
897.95	40.942
898.12	39.910
898.30	38.137
898.47	39.971
898.65	40.294
898.82	37.746
899.00	39.042
899.17	39.788
899.35	40.588
899.52	39.334
899.70	37.167
899.87	36.507
900.05	38.563
900.22	37.709
900.40	36.934
900.57	38.338
900.75	38.370
900.92	39.798
901.10	40.600
901.27	38.201
901.45	38.453
901.62	38.692
901.80	38.918
901.97	39.425
902.15	40.866
902.32	38.647
902.50	40.719
902.67	41.284
902.85	40.038
903.02	39.809
903.20	39.661
903.37	41.193
903.54	41.117
903.72	41.282
903.89	40.258
904.07	40.522
904.24	42.758
904.42	41.909
904.59	41.418
904.77	41.812
904.94	40.366
905.12	42.354
905.29	40.470
905.47	38.788
905.64	39.283
905.81	41.779
905.99	45.090
906.16	43.263
906.34	45.074
906.51	44.390
906.69	47.314
906.86	46.691
907.03	49.455
907.21	48.459
907.38	47.033
907.56	41.935
907.73	46.231
907.91	47.140
908.08	43.288
908.25	43.907
908.43	48.430
908.60	44.966
908.78	44.832
908.95	44.817
909.13	45.101
909.30	42.622
909.47	43.350
909.65	46.551
909.82	41.422
910.00	46.345
910.17	42.917
910.34	44.625
910.52	43.267
910.69	42.905
910.87	40.782
911.04	44.463
911.21	42.149
911.39	42.604
911.56	44.181
911.73	40.789
911.91	43.990
912.08	44.578
912.26	43.004
912.43	42.726
912.60	44.528
912.78	44.459
912.95	47.257
913.13	46.466
913.30	46.654
913.47	52.535
913.65	48.692
913.82	51.349
913.99	49.075
914.17	50.371
914.34	46.092
914.51	47.175
914.69	43.383
914.86	44.191
915.03	47.744
915.21	44.560
915.38	46.630
915.56	46.870
915.73	52.280
915.90	48.682
916.08	52.744
916.25	50.689
916.42	46.726
916.60	49.236
916.77	50.805
916.94	52.257
917.12	46.021
917.29	49.124
917.46	50.560
917.64	43.340
917.81	47.441
917.98	48.435
918.16	45.777
918.33	47.657
918.50	47.705
918.67	46.309
918.85	45.852
919.02	45.478
919.19	48.832
919.37	50.815
919.54	46.919
919.71	47.480
919.89	52.287
920.06	51.083
920.23	49.177
920.41	47.947
920.58	50.822
920.75	49.513
920.92	46.678
921.10	46.437
921.27	45.489
921.44	48.924
921.62	48.910
921.79	44.135
921.96	45.704
922.13	47.177
922.31	50.958
922.48	46.259
922.65	48.078
922.82	47.190
923.00	45.024
923.17	47.547
923.34	47.466
923.52	47.329
923.69	45.333
923.86	44.278
924.03	47.303
924.21	47.304
924.38	48.040
924.55	45.930
924.72	47.424
924.90	49.758
925.07	47.234
925.24	46.040
925.41	47.826
925.59	49.576
925.76	44.337
925.93	49.853
926.10	51.276
926.28	46.347
926.45	44.534
926.62	45.312
926.79	44.372
926.96	44.031
927.14	42.928
927.31	43.283
927.48	39.496
927.65	40.374
927.83	43.979
928.00	36.081
928.17	38.885
928.34	38.992
928.51	42.857
928.69	37.807
928.86	43.144
929.03	41.552
929.20	42.476
929.37	37.763
929.55	40.735
929.72	41.172
929.89	38.069
930.06	42.266
930.23	43.218
930.41	37.632
930.58	44.710
930.75	42.263
930.92	39.884
931.09	45.551
931.27	42.022
931.44	41.724
931.61	41.645
931.78	42.612
931.95	44.165
932.12	39.265
932.30	38.933
932.47	41.514
932.64	43.207
932.81	42.732
932.98	41.644
933.16	44.638
933.33	43.972
933.50	45.529
933.67	44.412
933.84	44.575
934.01	44.151
934.18	42.522
934.36	44.962
934.53	46.366
934.70	44.932
934.87	46.256
935.04	43.992
935.21	48.250
935.38	48.553
935.56	47.976
935.73	51.642
935.90	49.130
936.07	47.143
936.24	52.866
936.41	48.825
936.58	56.555
936.76	53.634
936.93	57.341
937.10	59.243
937.27	58.499
937.44	59.263
937.61	67.055
937.78	54.396
937.95	52.047
938.13	63.696
938.30	59.011
938.47	55.624
938.64	56.517
938.81	55.556
938.98	60.718
939.15	56.000
939.32	55.675
939.49	54.946
939.66	57.592
939.84	59.726
940.01	58.264
940.18	64.153
940.35	56.015
940.52	56.293
940.69	53.749
940.86	54.477
941.03	58.403
941.20	50.771
941.37	52.308
941.54	55.542
941.71	52.759
941.89	54.472
942.06	47.972
942.23	48.331
942.40	53.218
942.57	53.808
942.74	57.997
942.91	59.466
943.08	63.325
943.25	59.521
943.42	68.680
943.59	65.138
943.76	58.165
943.93	60.027
944.10	58.333
944.27	53.083
944.44	61.886
944.61	62.173
944.79	57.465
944.96	60.773
945.13	56.975
945.30	60.027
945.47	55.068
945.64	58.630
945.81	59.834
945.98	57.931
946.15	57.373
946.32	62.309
946.49	64.039
946.66	58.065
946.83	58.379
947.00	61.882
947.17	58.346
947.34	58.224
947.51	61.715
947.68	67.035
947.85	59.610
948.02	63.750
948.19	60.413
948.36	65.990
948.53	66.782
948.70	72.043
948.87	74.220
949.04	61.424
949.21	60.231
949.38	65.986
949.55	63.573
949.72	67.545
949.89	56.875
950.06	57.143
950.23	67.172
950.40	53.897
950.57	61.081
950.74	61.837
950.91	58.456
951.08	62.544
951.25	67.490
951.42	72.779
951.59	55.335
951.76	62.424
951.93	64.209
952.10	48.551
952.27	47.149
952.44	49.184
952.61	55.699
952.77	53.321
952.94	51.626
953.11	49.143
953.28	55.094
953.45	48.780
953.62	45.191
953.79	45.556
953.96	38.086
954.13	48.467
954.30	47.782
954.47	40.531
954.64	46.154
954.81	38.833
954.98	43.831
955.15	43.800
955.32	41.652
955.49	46.184
955.65	42.000
955.82	42.566
955.99	38.324
956.16	45.759
956.33	37.575
956.50	42.023
956.67	37.827
956.84	37.640
957.01	46.232
957.18	38.966
957.35	41.935
957.52	40.562
957.68	45.312
957.85	46.170
958.02	39.599
958.19	38.049
958.36	47.393
958.53	53.385
958.70	44.754
958.87	47.204
959.04	39.487
959.21	52.643
959.37	58.182
959.54	44.598
959.71	40.284
959.88	41.215
960.05	42.993
960.22	46.602
960.39	38.889
960.56	33.114
960.72	43.035
960.89	36.093
961.06	30.208
961.23	34.467
961.40	34.239
961.57	34.491
961.74	31.423
961.90	34.141
962.07	34.810
962.24	34.411
962.41	39.735
962.58	30.342
962.75	27.197
962.92	37.908
963.08	35.730
963.25	19.957
963.42	30.935
963.59	39.619
963.76	35.666
963.93	27.982
964.10	36.512
964.26	29.916
964.43	28.868
964.60	41.412
964.77	44.676
964.94	39.623
965.10	40.289
965.27	33.181
965.44	40.091
965.61	48.370
965.78	31.136
965.95	30.788
966.11	48.157
966.28	34.903
966.45	23.204
966.62	24.279
966.79	24.868
966.95	40.950
967.12	35.586
967.29	37.642
967.46	28.281
967.63	32.553
967.79	34.924
967.96	38.274
968.13	38.986
968.30	33.071
968.47	31.667
968.63	38.380
968.80	34.870
968.97	43.508
969.14	44.554
969.31	30.983
969.47	29.580
969.64	35.671
969.81	26.427
969.98	34.559
970.14	40.347
970.31	33.043
970.48	31.250
970.65	40.235
970.81	37.240
970.98	33.405
971.15	31.237
971.32	42.222
971.48	37.363
971.65	47.439
971.82	27.088
971.99	41.534
972.15	37.530
972.32	26.995
972.49	41.578
972.66	34.152
972.82	28.668
972.99	26.118
973.16	29.915
973.33	40.047
973.49	32.242
973.66	31.217
973.83	35.204
974.00	32.658
974.16	46.364
974.33	31.285
974.50	43.720
974.67	37.778
974.83	37.530
975.00	36.603
975.17	45.977
975.33	42.523
975.50	40.591
975.67	45.853
975.84	37.607
976.00	38.588
976.17	41.412
976.34	44.724
976.50	44.751
976.67	42.431
976.84	43.622
977.00	44.444
977.17	49.577
977.34	29.665
977.50	35.925
977.67	49.772
977.84	46.132
978.01	45.026
978.17	58.186
978.34	49.132
978.51	32.446
978.67	51.835
978.84	42.989
979.01	42.925
979.17	46.526
979.34	38.342
979.51	34.750
979.67	41.990
979.84	40.143
980.01	39.636
980.17	45.115
980.34	46.615
980.51	53.580
980.67	48.312
980.84	39.588
981.01	33.081
981.17	35.098
981.34	37.684
981.50	48.077
981.67	46.154
981.84	40.342
982.00	45.876
982.17	31.807
982.34	46.495
982.50	46.341
982.67	43.411
982.84	46.495
983.00	42.037
983.17	34.174
983.33	40.000
983.50	42.825
983.67	40.308
983.83	37.194
984.00	39.423
984.17	39.270
984.33	30.750
984.50	36.786
984.66	49.485
984.83	38.889
985.00	29.778
985.16	35.443
985.33	33.182
985.49	27.813
985.66	30.524
985.83	41.598
985.99	43.064
986.16	39.530
986.32	32.329
986.49	41.403
986.66	40.319
986.82	46.507
986.99	35.897
987.15	40.421
987.32	47.642
987.49	44.344
987.65	26.807
987.82	39.433
987.98	53.991
988.15	53.181
988.31	46.099
988.48	47.156
988.65	41.799
988.81	40.716
988.98	38.462
989.14	45.024
989.31	41.304
989.47	47.837
989.64	36.712
989.80	40.610
989.97	43.723
990.14	47.234
990.30	35.817
990.47	36.165
990.63	42.227
990.80	48.454
990.96	40.323
991.13	44.420
991.29	45.368
991.46	53.682
991.62	37.442
991.79	39.040
991.95	40.632
992.12	47.619
992.29	40.244
992.45	53.899
992.62	47.758
992.78	46.960
992.95	48.325
993.11	47.651
993.28	52.078
993.44	50.547
993.61	52.075
993.77	50.785
993.94	40.503
994.10	46.624
994.27	53.301
994.43	42.405
994.60	45.750
994.76	46.420
994.93	48.747
995.09	59.299
995.26	58.738
995.42	47.932
995.59	60.950
995.75	56.713
995.92	44.235
996.08	50.353
996.25	57.531
996.41	44.363
996.58	50.685
996.74	45.860
996.91	49.086
997.07	48.049
997.23	45.833
997.40	37.528
997.56	41.121
997.73	47.500
997.89	41.387
998.06	45.595
998.22	41.278
998.39	38.866
998.55	45.497
998.72	39.953
998.88	52.500
999.05	47.073
999.21	48.687
999.37	49.734
999.54	40.657
999.70	45.295
999.87	41.206
1000.03	56.621
1000.20	46.635
1000.36	49.161
1000.52	34.519
1000.69	48.081
1000.85	32.397
1001.02	32.648
1001.18	40.344
1001.35	46.072
1001.51	42.539
1001.67	43.430
1001.84	36.076
1002.00	37.185
1002.17	41.514
1002.33	34.895
1002.50	48.307
1002.66	49.052
1002.82	46.231
1002.99	39.467
1003.15	59.649
1003.32	67.920
1003.48	36.842
1003.64	51.654
1003.81	53.652
1003.97	44.749
1004.14	58.531
1004.30	47.420
1004.46	66.057
1004.63	47.403
1004.79	68.421
1004.95	48.072
1005.12	56.593
1005.28	52.880
1005.45	58.986
1005.61	61.858
1005.77	63.300
1005.94	54.036
1006.10	53.401
1006.26	46.523
1006.43	47.867
1006.59	56.180
1006.76	46.174
1006.92	58.588
1007.08	57.416
1007.25	45.475
1007.41	45.803
1007.57	39.706
1007.74	53.904
1007.90	48.196
1008.06	69.010
1008.23	63.846
1008.39	55.858
1008.55	58.525
1008.72	59.102
1008.88	57.778
1009.04	65.227
1009.21	58.234
1009.37	56.579
1009.53	62.590
1009.70	72.312
1009.86	78.836
1010.02	57.631
1010.19	61.714
1010.35	51.917
1010.51	67.064
1010.68	57.323
1010.84	71.916
1011.00	59.231
1011.17	63.435
1011.33	65.037
1011.49	63.277
1011.66	75.641
1011.82	63.939
1011.98	66.163
1012.14	63.562
1012.31	66.667
1012.47	57.289
1012.63	64.080
1012.80	66.667
1012.96	60.963
1013.12	60.556
1013.29	59.834
1013.45	58.747
1013.61	54.522
1013.77	52.972
1013.94	62.141
1014.10	58.788
1014.26	54.208
1014.43	54.945
1014.59	55.707
1014.75	44.301
1014.91	48.741
1015.08	57.143
1015.24	56.686
1015.40	49.250
1015.56	50.263
1015.73	55.309
1015.89	61.290
1016.05	45.261
1016.21	62.211
1016.38	55.496
1016.54	53.509
1016.70	55.000
1016.86	60.632
1017.03	56.948
1017.19	56.359
1017.35	57.311
1017.51	55.068
1017.68	64.156
1017.84	49.412
1018.00	59.530
1018.16	59.167
1018.33	55.618
1018.49	69.524
1018.65	67.030
1018.81	70.642
1018.97	51.841
1019.14	81.744
1019.30	60.057
1019.46	64.261
1019.62	73.047
1019.79	84.326
1019.95	66.581
1020.11	68.224
1020.27	78.689
1020.43	71.930
1020.60	72.348
1020.76	94.382
1020.92	65.826
1021.08	74.013
1021.24	63.975
1021.41	55.667
1021.57	62.069
1021.73	67.213
1021.89	83.224
1022.05	72.125
1022.21	67.500
1022.38	62.286
1022.54	66.762
1022.70	70.333
1022.86	59.942
1023.02	64.928
1023.19	78.289
1023.35	69.132
1023.51	58.013
1023.67	65.116
1023.83	81.679
1023.99	86.268
1024.16	61.508
1024.32	76.375
1024.48	64.539
1024.64	59.272
1024.80	58.511
1024.96	54.630
1025.12	61.442
1025.29	57.951
1025.45	66.786
1025.61	55.161
1025.77	66.426
1025.93	72.050
1026.09	67.568
1026.26	75.676
1026.42	74.590
1026.58	77.509
1026.74	70.196
1026.90	59.215
1027.06	70.957
1027.22	64.094
1027.38	84.397
1027.55	97.087
1027.71	68.023
1027.87	71.525
1028.03	64.542
1028.19	64.407
1028.35	61.624
1028.51	61.688
1028.67	63.878
1028.83	68.398
1029.00	63.103
1029.16	63.125
1029.32	48.872
1029.48	63.672
1029.64	59.672
1029.80	61.789
1029.96	82.011
1030.12	60.073
1030.28	52.982
1030.44	59.127
1030.61	81.435
1030.77	61.475
1030.93	66.667
1031.09	43.922
1031.25	64.467
1031.41	58.233
1031.57	57.384
1031.73	50.000
1031.89	72.792
1032.05	73.783
1032.21	34.694
1032.37	51.079
1032.53	62.547
1032.69	62.232
1032.86	67.308
1033.02	40.864
1033.18	57.308
1033.34	45.878
1033.50	46.114
1033.66	55.472
1033.82	60.073
1033.98	33.190
1034.14	58.986
1034.30	48.473
1034.46	55.263
1034.62	41.961
1034.78	55.882
1034.94	39.350
1035.10	57.282
1035.26	50.172
1035.42	54.636
1035.58	57.401
1035.74	51.867
1035.90	78.537
1036.06	43.820
1036.22	45.802
1036.38	66.079
1036.54	51.230
1036.70	73.750
1036.86	78.351
1037.02	57.875
1037.18	62.857
1037.34	48.016
1037.50	69.903
1037.66	46.316
1037.82	64.931
1037.98	68.100
1038.14	49.724
1038.30	45.769
1038.46	56.835
1038.62	57.746
1038.78	66.827
1038.94	70.936
1039.10	68.421
1039.26	84.914
1039.42	56.881
1039.58	69.231
1039.74	56.067
1039.90	55.000
1040.06	70.244
>>>>>End Processed Spectral Data<<<<<
