SpectraSuite Data File
++++++++++++++++++++++++++++++++++++
Date: Wed Jan 25 17:55:32 EET 2017
User: TheoProf
Dark Spectrum Present: Yes
Reference Spectrum Present: Yes
Number of Sampled Component Spectra: 1
Spectrometers: USB4C02475
Integration Time (usec): 64136 (USB4C02475)
Spectra Averaged: 1 (USB4C02475)
Boxcar Smoothing: 0 (USB4C02475)
Correct for Electrical Dark: No (USB4C02475)
Strobe/Lamp Enabled: No (USB4C02475)
Correct for Detector Non-linearity: No (USB4C02475)
Correct for Stray Light: No (USB4C02475)
Number of Pixels in Processed Spectrum: 3648
>>>>>Begin Processed Spectral Data<<<<<
344.91	416.667
345.13	416.667
345.35	416.667
345.57	-107.143
345.79	-250.000
346.00	100.000
346.22	275.000
346.44	3.448
346.66	400.000
346.87	217.241
347.09	440.000
347.31	123.913
347.53	0.000
347.74	50.000
347.96	107.143
348.18	116.667
348.40	263.158
348.61	238.462
348.83	-12.121
349.05	103.279
349.27	-175.000
349.48	158.824
349.70	152.941
349.92	25.806
350.14	78.689
350.35	-103.704
350.57	83.333
350.79	70.588
351.01	80.000
351.22	120.000
351.44	66.667
351.66	-200.000
351.87	205.556
352.09	50.000
352.31	0.000
352.53	70.000
352.74	93.103
352.96	82.000
353.18	-34.146
353.40	-250.000
353.61	-23.810
353.83	227.273
354.05	80.000
354.26	30.303
354.48	97.619
354.70	52.632
354.92	-23.077
355.13	44.828
355.35	100.000
355.57	82.353
355.78	151.613
356.00	160.417
356.22	78.082
356.44	25.000
356.65	48.077
356.87	53.846
357.09	104.000
357.30	-10.204
357.52	-633.333
357.74	-5.455
357.95	29.167
358.17	79.545
358.39	62.791
358.60	62.500
358.82	-146.154
359.04	480.000
359.26	37.255
359.47	-22.222
359.69	58.416
359.91	70.000
360.12	-180.000
360.34	10.811
360.56	50.000
360.77	53.846
360.99	98.276
361.21	89.286
361.42	-4.255
361.64	625.000
361.86	-95.833
362.07	46.341
362.29	-6.818
362.51	0.000
362.72	130.769
362.94	121.538
363.16	70.455
363.37	28.125
363.59	-20.000
363.81	6.250
364.02	87.755
364.24	23.077
364.46	107.692
364.67	650.000
364.89	45.455
365.11	11.111
365.32	189.286
365.54	-110.526
365.76	49.425
365.97	57.576
366.19	81.818
366.41	85.714
366.62	125.714
366.84	228.571
367.05	10.909
367.27	48.485
367.49	-35.484
367.70	88.571
367.92	10.526
368.14	78.571
368.35	8.824
368.57	60.759
368.79	-11.321
369.00	53.061
369.22	30.000
369.43	126.563
369.65	0.000
369.87	88.571
370.08	-2.778
370.30	480.000
370.51	-460.000
370.73	30.303
370.95	-7.692
371.16	5.556
371.38	-137.500
371.60	433.333
371.81	78.947
372.03	92.754
372.24	150.000
372.46	51.724
372.68	66.667
372.89	-5.263
373.11	11.864
373.32	-0.000
373.54	-84.211
373.76	106.122
373.97	137.838
374.19	48.718
374.40	24.138
374.62	75.000
374.84	36.000
375.05	53.704
375.27	40.000
375.48	-176.471
375.70	62.069
375.92	140.385
376.13	40.000
376.35	-11.111
376.56	-328.571
376.78	106.818
376.99	32.308
377.21	-72.093
377.43	142.308
377.64	14.286
377.86	57.143
378.07	240.000
378.29	56.818
378.51	17.284
378.72	78.082
378.94	22.857
379.15	21.053
379.37	74.000
379.58	206.250
379.80	68.750
380.01	0.000
380.23	31.111
380.45	-5.263
380.66	24.638
380.88	181.818
381.09	-7.812
381.31	90.625
381.52	-60.870
381.74	87.368
381.95	130.000
382.17	90.909
382.39	24.138
382.60	23.810
382.82	12.000
383.03	87.500
383.25	21.250
383.46	-47.368
383.68	104.545
383.89	45.714
384.11	42.373
384.32	74.419
384.54	72.727
384.76	71.739
384.97	21.569
385.19	-56.250
385.40	40.323
385.62	-29.310
385.83	49.206
386.05	51.667
386.26	11.111
386.48	4.918
386.69	49.383
386.91	0.000
387.12	29.231
387.34	-63.462
387.55	-238.889
387.77	8.219
387.98	26.471
388.20	1.316
388.41	-22.857
388.63	112.000
388.84	89.706
389.06	46.970
389.27	64.356
389.49	81.538
389.70	78.431
389.92	10.714
390.13	74.490
390.35	29.412
390.56	100.000
390.78	62.500
390.99	60.563
391.21	54.412
391.42	-1.235
391.64	-57.500
391.85	59.722
392.07	-312.500
392.28	16.393
392.50	15.556
392.71	-20.968
392.93	63.793
393.14	41.509
393.36	29.245
393.57	20.430
393.79	-3400.000
394.00	35.294
394.22	12.500
394.43	38.710
394.65	-19.355
394.86	47.115
395.08	44.304
395.29	60.000
395.50	-13.415
395.72	35.484
395.93	36.090
396.15	29.839
396.36	39.080
396.58	15.652
396.79	58.108
397.01	53.125
397.22	1.493
397.44	15.966
397.65	70.833
397.87	21.622
398.08	44.444
398.29	-13.235
398.51	58.667
398.72	41.667
398.94	44.737
399.15	0.990
399.37	45.522
399.58	45.745
399.80	13.725
400.01	36.905
400.22	10.185
400.44	24.444
400.65	3.676
400.87	17.241
401.08	21.970
401.30	27.778
401.51	20.968
401.72	23.871
401.94	18.103
402.15	-12.931
402.37	19.811
402.58	-2.778
402.80	-21.918
403.01	-33.333
403.22	37.895
403.44	12.879
403.65	60.294
403.87	8.571
404.08	25.000
404.30	0.000
404.51	57.627
404.72	31.915
404.94	26.718
405.15	0.676
405.37	31.496
405.58	-14.286
405.79	4.211
406.01	35.294
406.22	35.200
406.44	32.624
406.65	6.250
406.86	19.205
407.08	6.481
407.29	28.289
407.51	8.333
407.72	19.444
407.93	3.947
408.15	50.307
408.36	13.139
408.58	26.486
408.79	14.085
409.00	18.710
409.22	30.055
409.43	12.057
409.64	-1.562
409.86	12.963
410.07	15.823
410.29	10.280
410.50	-7.627
410.71	32.680
410.93	-9.626
411.14	4.908
411.35	28.758
411.57	15.060
411.78	-7.692
412.00	37.063
412.21	-26.712
412.42	19.760
412.64	-22.727
412.85	14.035
413.06	11.927
413.28	10.667
413.49	18.841
413.70	7.345
413.92	16.552
414.13	8.036
414.34	24.607
414.56	-9.202
414.77	13.529
414.98	-4.188
415.20	11.561
415.41	15.000
415.63	18.421
415.84	12.255
416.05	19.565
416.27	17.727
416.48	19.672
416.69	9.459
416.91	21.256
417.12	13.021
417.33	24.473
417.55	-1.163
417.76	16.667
417.97	12.195
418.19	28.623
418.40	4.945
418.61	15.546
418.83	4.072
419.04	15.766
419.25	14.344
419.46	13.974
419.68	1.905
419.89	18.717
420.10	15.900
420.32	14.343
420.53	12.851
420.74	9.231
420.96	13.147
421.17	17.391
421.38	0.383
421.60	3.333
421.81	1.667
422.02	8.046
422.23	-1.660
422.45	7.407
422.66	12.083
422.87	8.397
423.09	-11.454
423.30	9.722
423.51	13.284
423.73	5.195
423.94	11.765
424.15	18.533
424.36	29.688
424.58	19.031
424.79	22.442
425.00	-1.761
425.22	21.667
425.43	21.377
425.64	12.662
425.85	7.692
426.07	1.262
426.28	6.507
426.49	-5.166
426.71	4.386
426.92	4.438
427.13	-3.960
427.34	3.939
427.56	10.714
427.77	-0.391
427.98	-12.500
428.19	-1.544
428.41	-9.898
428.62	2.055
428.83	17.827
429.04	-4.969
429.26	3.540
429.47	-1.231
429.68	5.231
429.89	7.440
430.11	4.167
430.32	17.414
430.53	11.429
430.74	7.143
430.96	10.209
431.17	1.994
431.38	2.903
431.59	-12.232
431.81	5.645
432.02	-3.371
432.23	5.455
432.44	5.385
432.66	12.570
432.87	-4.559
433.08	-1.852
433.29	9.645
433.51	13.235
433.72	15.222
433.93	3.263
434.14	17.840
434.35	-1.695
434.57	8.386
434.78	0.241
434.99	7.112
435.20	18.252
435.42	10.861
435.63	22.509
435.84	19.007
436.05	19.577
436.26	18.726
436.48	4.673
436.69	0.213
436.90	6.334
437.11	10.987
437.32	8.768
437.54	9.979
437.75	16.700
437.96	3.792
438.17	4.535
438.38	8.434
438.60	9.142
438.81	4.819
439.02	2.372
439.23	12.222
439.44	9.375
439.66	6.607
439.87	-3.682
440.08	12.397
440.29	13.178
440.50	13.592
440.72	2.733
440.93	9.269
441.14	-0.574
441.35	8.527
441.56	2.317
441.77	9.852
441.99	4.312
442.20	6.093
442.41	8.408
442.62	6.552
442.83	3.547
443.04	6.219
443.26	10.048
443.47	14.286
443.68	5.892
443.89	5.525
444.10	2.151
444.31	1.270
444.53	11.185
444.74	6.962
444.95	2.893
445.16	4.027
445.37	5.663
445.58	7.097
445.80	6.139
446.01	15.670
446.22	7.179
446.43	11.503
446.64	6.126
446.85	5.954
447.06	8.393
447.28	9.649
447.49	5.818
447.70	10.092
447.91	9.804
448.12	8.000
448.33	5.379
448.54	3.091
448.76	7.255
448.97	8.886
449.18	5.977
449.39	8.576
449.60	9.551
449.81	12.500
450.02	6.206
450.23	10.677
450.45	10.658
450.66	5.660
450.87	8.601
451.08	13.366
451.29	4.868
451.50	5.138
451.71	4.052
451.92	10.172
452.13	16.045
452.35	7.326
452.56	14.232
452.77	18.710
452.98	32.192
453.19	31.545
453.40	42.257
453.61	50.738
453.82	56.736
454.03	67.239
454.25	66.065
454.46	79.573
454.67	84.211
454.88	83.711
455.09	83.483
455.30	86.999
455.51	91.904
455.72	95.294
455.93	104.416
456.14	94.412
456.35	92.833
456.56	99.629
456.78	94.774
456.99	98.756
457.20	98.228
457.41	95.987
457.62	87.116
457.83	92.637
458.04	91.962
458.25	95.959
458.46	94.461
458.67	96.689
458.88	98.403
459.09	94.529
459.30	91.889
459.51	92.895
459.73	94.894
459.94	91.910
460.15	97.342
460.36	95.270
460.57	89.019
460.78	89.617
460.99	89.694
461.20	88.642
461.41	95.901
461.62	97.721
461.83	96.528
462.04	88.089
462.25	87.721
462.46	97.182
462.67	83.986
462.88	98.354
463.09	93.772
463.30	86.891
463.51	97.153
463.72	84.923
463.93	91.334
464.15	96.181
464.36	89.528
464.57	91.004
464.78	93.245
464.99	86.351
465.20	98.597
465.41	101.283
465.62	93.405
465.83	98.784
466.04	94.252
466.25	93.338
466.46	92.481
466.67	96.598
466.88	94.672
467.09	89.925
467.30	93.188
467.51	89.439
467.72	94.854
467.93	91.753
468.14	90.659
468.35	92.909
468.56	95.065
468.77	98.181
468.98	93.534
469.19	92.492
469.40	98.507
469.61	95.457
469.82	96.314
470.03	91.166
470.24	95.175
470.45	89.794
470.66	91.910
470.87	96.731
471.08	94.822
471.29	99.941
471.50	89.162
471.71	95.625
471.92	92.964
472.13	97.615
472.34	100.513
472.55	94.206
472.76	99.831
472.97	92.458
473.18	98.915
473.39	91.862
473.60	94.679
473.81	92.397
474.01	101.481
474.22	95.117
474.43	98.865
474.64	96.680
474.85	92.664
475.06	93.542
475.27	96.388
475.48	94.583
475.69	95.041
475.90	98.602
476.11	98.244
476.32	96.619
476.53	97.663
476.74	99.057
476.95	95.612
477.16	93.678
477.37	98.624
477.58	96.839
477.79	96.185
478.00	94.746
478.21	91.361
478.41	95.112
478.62	93.467
478.83	99.119
479.04	96.959
479.25	94.545
479.46	92.474
479.67	94.111
479.88	91.689
480.09	95.866
480.30	96.487
480.51	93.658
480.72	96.151
480.93	94.603
481.14	93.290
481.34	92.724
481.55	98.206
481.76	94.864
481.97	96.441
482.18	93.380
482.39	95.715
482.60	93.431
482.81	98.450
483.02	96.191
483.23	92.961
483.44	95.670
483.65	93.424
483.85	96.417
484.06	92.182
484.27	93.817
484.48	94.061
484.69	96.818
484.90	92.052
485.11	89.954
485.32	92.844
485.53	94.616
485.73	95.897
485.94	96.025
486.15	95.608
486.36	95.697
486.57	95.229
486.78	98.507
486.99	97.295
487.20	94.952
487.41	94.261
487.61	96.301
487.82	100.604
488.03	96.366
488.24	97.481
488.45	96.529
488.66	95.450
488.87	92.310
489.08	99.765
489.28	99.249
489.49	96.728
489.70	97.730
489.91	98.077
490.12	96.233
490.33	95.216
490.54	96.974
490.74	99.577
490.95	99.271
491.16	93.548
491.37	98.595
491.58	95.305
491.79	97.334
492.00	98.155
492.20	99.432
492.41	97.793
492.62	95.940
492.83	97.356
493.04	96.591
493.25	96.155
493.45	99.237
493.66	96.887
493.87	97.872
494.08	96.046
494.29	97.198
494.50	97.150
494.70	96.102
494.91	98.892
495.12	98.381
495.33	99.453
495.54	98.586
495.75	97.555
495.95	98.462
496.16	97.633
496.37	96.266
496.58	98.860
496.79	97.853
496.99	95.955
497.20	96.602
497.41	96.790
497.62	95.409
497.83	97.221
498.04	97.001
498.24	96.901
498.45	94.476
498.66	96.317
498.87	96.931
499.08	95.560
499.28	96.899
499.49	98.303
499.70	100.099
499.91	98.211
500.12	97.364
500.32	95.538
500.53	97.157
500.74	93.261
500.95	95.682
501.15	96.230
501.36	97.465
501.57	96.446
501.78	94.857
501.99	95.129
502.19	92.622
502.40	90.822
502.61	83.221
502.82	77.426
503.02	67.612
503.23	58.682
503.44	50.635
503.65	40.772
503.86	35.340
504.06	28.247
504.27	22.696
504.48	18.187
504.69	11.671
504.89	8.713
505.10	6.725
505.31	4.467
505.52	4.103
505.72	3.643
505.93	3.611
506.14	1.907
506.35	1.215
506.55	1.479
506.76	1.917
506.97	2.568
507.18	1.672
507.38	2.262
507.59	1.777
507.80	0.792
508.01	1.766
508.21	0.283
508.42	1.316
508.63	1.458
508.84	2.063
509.04	1.029
509.25	1.552
509.46	1.795
509.67	0.871
509.87	1.566
510.08	1.084
510.29	1.428
510.49	1.004
510.70	1.651
510.91	1.369
511.12	0.860
511.32	0.843
511.53	0.916
511.74	1.208
511.94	1.966
512.15	0.744
512.36	1.088
512.57	1.271
512.77	0.060
512.98	1.212
513.19	1.375
513.39	0.701
513.60	1.242
513.81	0.637
514.01	0.202
514.22	1.274
514.43	0.891
514.64	1.624
514.84	0.666
515.05	1.037
515.26	1.476
515.46	0.857
515.67	0.753
515.88	1.338
516.08	0.766
516.29	0.861
516.50	1.720
516.70	1.125
516.91	1.524
517.12	0.835
517.32	1.254
517.53	1.464
517.74	0.337
517.95	0.772
518.15	1.475
518.36	0.896
518.57	0.791
518.77	0.128
518.98	1.228
519.19	0.913
519.39	0.627
519.60	0.804
519.80	1.535
520.01	1.126
520.22	1.083
520.42	1.159
520.63	0.949
520.84	1.136
521.04	0.706
521.25	0.264
521.46	0.618
521.66	0.868
521.87	0.645
522.08	0.795
522.28	0.795
522.49	0.563
522.70	0.485
522.90	0.142
523.11	0.662
523.31	1.053
523.52	0.661
523.73	0.924
523.93	1.495
524.14	0.183
524.35	0.655
524.55	0.649
524.76	0.339
524.97	1.214
525.17	0.622
525.38	0.638
525.58	0.952
525.79	0.178
526.00	0.972
526.20	0.876
526.41	0.922
526.61	0.387
526.82	0.999
527.03	0.824
527.23	1.338
527.44	0.998
527.64	0.526
527.85	0.717
528.06	0.849
528.26	0.281
528.47	1.124
528.68	0.852
528.88	0.013
529.09	0.679
529.29	1.044
529.50	0.365
529.70	0.581
529.91	0.747
530.12	0.726
530.32	0.757
530.53	0.743
530.73	0.653
530.94	0.450
531.15	0.406
531.35	1.168
531.56	0.326
531.76	1.147
531.97	0.621
532.17	1.127
532.38	0.445
532.59	1.016
532.79	1.133
533.00	0.949
533.20	0.447
533.41	0.421
533.61	0.857
533.82	0.945
534.03	1.374
534.23	0.841
534.44	0.944
534.64	0.651
534.85	1.029
535.05	0.503
535.26	0.699
535.46	0.283
535.67	0.981
535.88	1.134
536.08	1.110
536.29	1.109
536.49	1.186
536.70	1.052
536.90	0.979
537.11	1.195
537.31	0.671
537.52	1.063
537.72	1.520
537.93	0.928
538.13	1.783
538.34	1.647
538.55	1.573
538.75	1.177
538.96	1.045
539.16	1.088
539.37	1.856
539.57	1.333
539.78	1.810
539.98	1.625
540.19	1.087
540.39	1.864
540.60	2.065
540.80	2.019
541.01	1.875
541.21	2.400
541.42	2.109
541.62	2.275
541.83	2.781
542.03	2.430
542.24	2.843
542.44	3.096
542.65	2.970
542.85	3.019
543.06	3.017
543.26	3.173
543.47	2.856
543.67	2.964
543.88	2.977
544.08	2.965
544.29	3.012
544.49	2.686
544.70	3.041
544.90	3.040
545.11	3.214
545.31	3.206
545.52	3.332
545.72	4.360
545.93	4.732
546.13	3.763
546.34	3.616
546.54	3.286
546.75	3.632
546.95	3.372
547.15	3.191
547.36	3.012
547.56	2.552
547.77	2.720
547.97	2.160
548.18	2.231
548.38	2.231
548.59	2.019
548.79	2.294
549.00	2.126
549.20	1.910
549.41	2.324
549.61	2.082
549.81	1.923
550.02	1.737
550.22	1.970
550.43	2.124
550.63	1.895
550.84	1.846
551.04	1.972
551.25	2.228
551.45	2.077
551.65	2.513
551.86	2.840
552.06	2.540
552.27	3.009
552.47	2.509
552.68	2.828
552.88	2.695
553.08	2.756
553.29	2.914
553.49	2.826
553.70	3.226
553.90	3.463
554.11	3.096
554.31	3.566
554.51	3.052
554.72	3.722
554.92	5.023
555.13	7.582
555.33	11.885
555.53	18.082
555.74	25.576
555.94	34.649
556.15	43.725
556.35	51.181
556.56	56.938
556.76	61.089
556.96	67.778
557.17	73.619
557.37	78.420
557.58	84.360
557.78	87.500
557.98	89.746
558.19	90.751
558.39	94.937
558.59	95.211
558.80	95.119
559.00	96.340
559.21	96.626
559.41	97.675
559.61	97.946
559.82	98.384
560.02	98.012
560.23	99.003
560.43	97.937
560.63	96.878
560.84	99.122
561.04	98.623
561.24	98.177
561.45	97.915
561.65	98.368
561.85	97.502
562.06	96.969
562.26	99.461
562.47	98.200
562.67	99.595
562.87	99.557
563.08	98.263
563.28	98.992
563.48	98.303
563.69	96.605
563.89	97.468
564.09	100.452
564.30	99.567
564.50	99.903
564.70	100.527
564.91	98.958
565.11	100.016
565.31	99.164
565.52	98.101
565.72	99.391
565.92	98.481
566.13	97.367
566.33	98.468
566.53	97.916
566.74	98.201
566.94	97.416
567.14	99.738
567.35	98.435
567.55	97.911
567.75	98.384
567.96	99.303
568.16	99.009
568.36	100.664
568.57	99.581
568.77	100.318
568.97	99.591
569.18	98.794
569.38	98.816
569.58	99.177
569.79	99.167
569.99	99.192
570.19	100.689
570.39	101.318
570.60	100.924
570.80	99.918
571.00	100.337
571.21	99.092
571.41	98.622
571.61	101.372
571.82	99.260
572.02	98.720
572.22	99.237
572.42	97.883
572.63	97.655
572.83	98.830
573.03	96.940
573.24	97.884
573.44	96.836
573.64	97.278
573.84	96.804
574.05	99.057
574.25	98.757
574.45	99.673
574.66	98.448
574.86	98.109
575.06	100.770
575.26	98.671
575.47	99.484
575.67	98.584
575.87	99.941
576.07	101.632
576.28	99.963
576.48	98.054
576.68	99.118
576.88	98.521
577.09	99.576
577.29	99.491
577.49	97.979
577.69	99.229
577.90	97.931
578.10	98.411
578.30	96.429
578.50	98.006
578.71	97.907
578.91	98.663
579.11	97.692
579.31	98.087
579.52	99.793
579.72	100.415
579.92	98.224
580.12	99.727
580.33	99.681
580.53	99.942
580.73	99.156
580.93	99.366
581.13	101.030
581.34	100.385
581.54	100.608
581.74	99.838
581.94	99.336
582.15	99.906
582.35	98.954
582.55	97.084
582.75	97.526
582.95	99.510
583.16	100.917
583.36	99.618
583.56	99.201
583.76	99.523
583.96	99.980
584.17	98.925
584.37	100.620
584.57	101.614
584.77	100.941
584.97	99.688
585.18	100.073
585.38	99.823
585.58	100.701
585.78	100.389
585.98	101.110
586.19	100.959
586.39	100.699
586.59	100.706
586.79	98.291
586.99	99.055
587.20	99.896
587.40	100.372
587.60	99.577
587.80	100.623
588.00	100.148
588.20	99.533
588.41	100.990
588.61	101.723
588.81	101.503
589.01	100.503
589.21	99.638
589.41	100.086
589.62	99.803
589.82	99.934
590.02	99.935
590.22	100.264
590.42	99.227
590.62	100.689
590.83	98.532
591.03	99.723
591.23	100.830
591.43	99.535
591.63	99.633
591.83	99.291
592.03	97.211
592.24	96.877
592.44	96.973
592.64	97.047
592.84	97.241
593.04	96.060
593.24	97.439
593.44	98.793
593.65	98.397
593.85	98.561
594.05	98.971
594.25	99.646
594.45	100.258
594.65	98.837
594.85	99.060
595.06	98.834
595.26	98.111
595.46	99.075
595.66	99.126
595.86	98.769
596.06	99.647
596.26	98.533
596.46	99.987
596.66	99.243
596.87	99.002
597.07	98.585
597.27	99.045
597.47	98.208
597.67	99.499
597.87	98.480
598.07	99.050
598.27	99.272
598.47	97.505
598.67	98.630
598.88	98.189
599.08	97.349
599.28	98.431
599.48	97.431
599.68	98.289
599.88	97.015
600.08	96.755
600.28	96.295
600.48	96.985
600.68	96.322
600.88	99.104
601.09	95.934
601.29	97.434
601.49	98.734
601.69	97.859
601.89	99.285
602.09	98.010
602.29	98.465
602.49	98.654
602.69	99.288
602.89	99.902
603.09	99.551
603.29	98.943
603.49	99.012
603.69	98.999
603.90	97.540
604.10	97.801
604.30	98.079
604.50	98.245
604.70	98.908
604.90	96.742
605.10	97.521
605.30	98.157
605.50	99.001
605.70	98.363
605.90	98.213
606.10	99.165
606.30	98.286
606.50	98.911
606.70	99.215
606.90	98.735
607.10	98.833
607.30	99.101
607.50	99.381
607.70	98.572
607.90	97.454
608.10	97.755
608.30	97.293
608.50	98.258
608.70	97.860
608.90	97.486
609.11	96.740
609.31	97.659
609.51	97.470
609.71	98.511
609.91	98.720
610.11	97.175
610.31	97.618
610.51	97.026
610.71	96.415
610.91	97.375
611.11	98.124
611.31	96.955
611.51	95.492
611.71	95.549
611.91	94.607
612.11	94.062
612.31	92.811
612.51	90.633
612.71	86.319
612.91	81.337
613.11	74.729
613.31	67.481
613.51	59.208
613.71	52.107
613.91	46.064
614.11	40.018
614.31	35.248
614.50	30.491
614.70	26.388
614.90	22.903
615.10	18.505
615.30	14.201
615.50	10.728
615.70	8.217
615.90	5.975
616.10	4.655
616.30	3.463
616.50	2.708
616.70	2.454
616.90	1.950
617.10	2.016
617.30	1.703
617.50	1.530
617.70	1.557
617.90	1.308
618.10	1.330
618.30	1.197
618.50	1.254
618.70	1.342
618.90	1.116
619.10	1.185
619.30	1.332
619.49	1.114
619.69	1.327
619.89	1.091
620.09	1.209
620.29	1.136
620.49	1.122
620.69	0.940
620.89	0.872
621.09	1.033
621.29	1.114
621.49	1.150
621.69	0.900
621.89	0.789
622.09	0.854
622.29	0.839
622.48	0.981
622.68	0.911
622.88	0.806
623.08	0.880
623.28	0.645
623.48	0.777
623.68	0.792
623.88	0.594
624.08	0.837
624.28	0.750
624.48	0.825
624.67	0.764
624.87	0.800
625.07	0.939
625.27	0.760
625.47	0.829
625.67	0.550
625.87	0.767
626.07	0.820
626.27	0.739
626.47	0.864
626.66	0.756
626.86	0.517
627.06	0.541
627.26	0.438
627.46	0.578
627.66	0.825
627.86	0.651
628.06	0.448
628.25	0.768
628.45	0.646
628.65	0.529
628.85	0.837
629.05	0.683
629.25	0.519
629.45	0.643
629.65	0.577
629.84	0.534
630.04	0.802
630.24	0.594
630.44	0.777
630.64	0.661
630.84	0.523
631.04	0.791
631.23	0.654
631.43	0.750
631.63	0.687
631.83	0.625
632.03	0.537
632.23	0.523
632.42	0.452
632.62	0.462
632.82	0.726
633.02	0.563
633.22	0.520
633.42	0.719
633.62	0.566
633.81	0.815
634.01	0.419
634.21	0.660
634.41	0.622
634.61	0.489
634.80	0.353
635.00	0.696
635.20	0.725
635.40	0.505
635.60	0.469
635.80	0.648
635.99	0.670
636.19	0.779
636.39	0.457
636.59	0.524
636.79	0.765
636.98	0.556
637.18	0.727
637.38	0.588
637.58	0.685
637.78	0.714
637.97	0.722
638.17	0.572
638.37	0.612
638.57	0.592
638.77	0.555
638.96	0.578
639.16	0.622
639.36	0.452
639.56	0.616
639.76	0.633
639.95	0.733
640.15	0.499
640.35	0.685
640.55	0.516
640.75	0.549
640.94	0.728
641.14	0.446
641.34	0.717
641.54	0.768
641.73	0.599
641.93	0.541
642.13	0.602
642.33	0.882
642.53	0.428
642.72	0.752
642.92	0.925
643.12	0.651
643.32	0.764
643.51	0.668
643.71	0.543
643.91	0.860
644.11	0.805
644.30	0.973
644.50	0.759
644.70	0.805
644.90	0.844
645.09	0.768
645.29	0.786
645.49	1.006
645.69	0.760
645.88	0.775
646.08	0.503
646.28	0.750
646.48	0.978
646.67	0.926
646.87	1.006
647.07	0.977
647.26	0.786
647.46	0.870
647.66	0.669
647.86	0.830
648.05	1.009
648.25	0.921
648.45	0.867
648.65	1.039
648.84	1.367
649.04	1.022
649.24	1.019
649.43	0.986
649.63	1.206
649.83	1.105
650.03	1.251
650.22	1.146
650.42	1.222
650.62	1.336
650.81	1.269
651.01	1.165
651.21	1.301
651.40	1.351
651.60	1.413
651.80	1.317
652.00	1.654
652.19	1.205
652.39	1.423
652.59	1.434
652.78	1.470
652.98	1.580
653.18	1.704
653.37	1.757
653.57	1.618
653.77	1.860
653.96	1.870
654.16	1.864
654.36	2.241
654.55	2.057
654.75	2.672
654.95	2.460
655.14	2.298
655.34	2.647
655.54	2.892
655.73	3.403
655.93	3.954
656.13	5.062
656.32	6.659
656.52	9.357
656.72	13.236
656.91	17.286
657.11	23.682
657.31	29.154
657.50	36.387
657.70	43.282
657.90	50.093
658.09	54.789
658.29	59.722
658.49	63.828
658.68	68.365
658.88	72.011
659.07	76.574
659.27	80.899
659.47	83.757
659.66	88.064
659.86	92.376
660.06	94.577
660.25	93.188
660.45	95.403
660.64	96.320
660.84	94.831
661.04	95.560
661.23	94.770
661.43	96.073
661.63	97.174
661.82	95.338
662.02	96.005
662.21	95.997
662.41	97.073
662.61	95.896
662.80	96.814
663.00	96.167
663.19	97.438
663.39	96.767
663.59	97.288
663.78	97.521
663.98	96.890
664.17	97.382
664.37	97.486
664.57	95.553
664.76	97.518
664.96	96.304
665.15	97.845
665.35	98.054
665.55	98.118
665.74	99.301
665.94	98.860
666.13	99.634
666.33	99.199
666.53	100.513
666.72	98.651
666.92	99.375
667.11	99.630
667.31	99.486
667.50	99.196
667.70	99.038
667.90	99.710
668.09	99.506
668.29	99.300
668.48	98.410
668.68	97.994
668.87	98.812
669.07	98.434
669.26	96.602
669.46	98.331
669.66	99.269
669.85	98.402
670.05	99.074
670.24	97.693
670.44	97.597
670.63	98.570
670.83	97.978
671.02	97.700
671.22	97.224
671.42	98.004
671.61	99.092
671.81	98.497
672.00	98.878
672.20	97.658
672.39	97.940
672.59	96.971
672.78	96.990
672.98	97.504
673.17	97.507
673.37	98.395
673.56	98.284
673.76	99.255
673.95	99.162
674.15	98.867
674.34	101.233
674.54	100.910
674.73	99.105
674.93	100.735
675.13	99.984
675.32	100.731
675.52	99.935
675.71	100.074
675.91	99.545
676.10	99.630
676.30	100.048
676.49	98.983
676.69	98.338
676.88	99.910
677.08	99.733
677.27	99.298
677.47	99.390
677.66	100.337
677.86	100.260
678.05	99.008
678.24	99.595
678.44	99.464
678.63	99.386
678.83	98.611
679.02	98.178
679.22	98.688
679.41	97.839
679.61	98.698
679.80	98.146
680.00	97.780
680.19	97.503
680.39	97.462
680.58	96.515
680.78	97.298
680.97	98.467
681.17	96.787
681.36	98.612
681.56	98.148
681.75	99.612
681.94	100.136
682.14	99.710
682.33	97.873
682.53	98.673
682.72	97.449
682.92	98.073
683.11	98.208
683.31	98.083
683.50	97.376
683.69	98.085
683.89	99.796
684.08	99.168
684.28	100.226
684.47	99.972
684.67	99.437
684.86	99.174
685.06	98.734
685.25	98.940
685.44	98.901
685.64	98.470
685.83	98.866
686.03	98.620
686.22	99.216
686.42	99.694
686.61	99.939
686.80	99.712
687.00	99.535
687.19	100.781
687.39	99.805
687.58	99.416
687.77	100.504
687.97	99.632
688.16	99.071
688.36	99.526
688.55	99.330
688.74	97.894
688.94	99.337
689.13	99.324
689.33	97.995
689.52	99.022
689.71	98.948
689.91	99.968
690.10	98.915
690.30	98.707
690.49	98.929
690.68	99.767
690.88	99.325
691.07	99.662
691.27	99.749
691.46	99.751
691.65	100.361
691.85	99.996
692.04	99.641
692.23	99.192
692.43	98.917
692.62	98.856
692.82	99.494
693.01	98.228
693.20	97.778
693.40	98.378
693.59	99.408
693.78	99.441
693.98	98.788
694.17	98.609
694.36	97.531
694.56	97.920
694.75	98.351
694.94	96.951
695.14	98.602
695.33	98.291
695.53	99.665
695.72	99.390
695.91	99.637
696.11	99.574
696.30	98.941
696.49	100.340
696.69	98.722
696.88	99.281
697.07	99.619
697.27	98.899
697.46	98.972
697.65	99.157
697.85	98.740
698.04	98.753
698.23	98.740
698.43	98.179
698.62	99.141
698.81	98.013
699.01	98.223
699.20	99.106
699.39	100.128
699.58	99.908
699.78	99.486
699.97	98.463
700.16	98.558
700.36	97.861
700.55	98.271
700.74	97.936
700.94	99.358
701.13	101.094
701.32	98.943
701.52	98.976
701.71	97.669
701.90	98.615
702.09	99.256
702.29	97.691
702.48	99.029
702.67	98.826
702.87	98.838
703.06	97.920
703.25	98.572
703.44	98.981
703.64	99.262
703.83	97.863
704.02	99.016
704.22	99.073
704.41	99.297
704.60	99.375
704.79	99.144
704.99	99.386
705.18	99.166
705.37	98.465
705.56	97.399
705.76	98.273
705.95	96.865
706.14	97.495
706.33	97.346
706.53	97.299
706.72	97.865
706.91	98.394
707.11	97.760
707.30	97.126
707.49	97.203
707.68	97.461
707.88	97.088
708.07	98.436
708.26	97.573
708.45	98.036
708.64	97.626
708.84	98.185
709.03	97.473
709.22	97.237
709.41	96.888
709.61	98.238
709.80	96.326
709.99	97.437
710.18	97.018
710.38	95.554
710.57	96.477
710.76	97.750
710.95	97.564
711.14	95.369
711.34	96.628
711.53	95.501
711.72	96.138
711.91	94.854
712.11	95.159
712.30	95.383
712.49	95.515
712.68	96.467
712.87	94.582
713.07	95.317
713.26	93.887
713.45	91.270
713.64	89.971
713.83	85.570
714.03	81.090
714.22	76.197
714.41	69.581
714.60	62.095
714.79	56.475
714.99	49.488
715.18	44.638
715.37	39.785
715.56	34.282
715.75	29.636
715.94	25.541
716.14	21.822
716.33	17.975
716.52	14.459
716.71	11.834
716.90	9.394
717.10	7.772
717.29	5.962
717.48	4.719
717.67	3.708
717.86	3.070
718.05	2.645
718.24	2.358
718.44	1.790
718.63	1.804
718.82	1.671
719.01	1.479
719.20	1.368
719.39	1.108
719.59	1.205
719.78	1.282
719.97	1.163
720.16	1.007
720.35	1.244
720.54	1.179
720.73	0.956
720.93	1.151
721.12	0.921
721.31	1.001
721.50	0.817
721.69	0.920
721.88	0.857
722.07	0.775
722.27	0.904
722.46	0.564
722.65	0.939
722.84	0.727
723.03	0.857
723.22	0.851
723.41	0.613
723.60	0.796
723.79	0.820
723.99	0.743
724.18	0.661
724.37	0.648
724.56	0.553
724.75	0.734
724.94	0.814
725.13	0.709
725.32	0.513
725.51	0.583
725.71	0.508
725.90	0.504
726.09	0.609
726.28	0.337
726.47	0.368
726.66	0.552
726.85	0.574
727.04	0.853
727.23	0.770
727.42	0.568
727.61	0.472
727.81	0.619
728.00	0.573
728.19	0.384
728.38	0.312
728.57	0.650
728.76	0.509
728.95	0.454
729.14	0.739
729.33	0.561
729.52	0.734
729.71	0.471
729.90	0.422
730.09	0.320
730.28	0.442
730.48	0.290
730.67	0.600
730.86	0.532
731.05	0.423
731.24	0.465
731.43	0.275
731.62	0.383
731.81	0.446
732.00	0.330
732.19	0.624
732.38	0.230
732.57	0.223
732.76	0.487
732.95	0.437
733.14	0.439
733.33	0.513
733.52	0.659
733.71	0.560
733.90	0.282
734.09	0.231
734.28	0.133
734.47	0.405
734.66	0.461
734.85	0.182
735.04	0.352
735.23	0.313
735.42	0.400
735.61	0.316
735.81	0.237
736.00	0.388
736.19	0.229
736.38	0.306
736.57	0.343
736.76	0.340
736.95	0.367
737.14	0.224
737.33	0.506
737.52	0.252
737.71	0.279
737.90	0.217
738.09	0.186
738.28	0.190
738.47	0.023
738.66	0.125
738.85	0.290
739.04	0.158
739.22	0.229
739.41	0.398
739.60	0.254
739.79	0.198
739.98	0.309
740.17	0.130
740.36	0.202
740.55	0.338
740.74	0.357
740.93	0.482
741.12	0.201
741.31	0.148
741.50	0.434
741.69	0.263
741.88	0.488
742.07	0.194
742.26	0.469
742.45	0.329
742.64	0.363
742.83	0.628
743.02	0.012
743.21	-0.024
743.40	0.437
743.59	0.287
743.78	0.480
743.97	0.412
744.16	0.484
744.34	0.294
744.53	0.770
744.72	0.227
744.91	0.579
745.10	0.479
745.29	0.533
745.48	0.334
745.67	0.127
745.86	0.416
746.05	0.388
746.24	0.259
746.43	0.158
746.62	0.431
746.81	0.187
747.00	0.261
747.18	0.429
747.37	0.340
747.56	0.473
747.75	0.497
747.94	0.066
748.13	0.292
748.32	0.212
748.51	0.193
748.70	0.271
748.89	0.357
749.08	0.435
749.26	0.281
749.45	0.281
749.64	0.285
749.83	-0.043
750.02	0.596
750.21	-0.297
750.40	0.555
750.59	0.215
750.78	0.178
750.96	0.527
751.15	0.442
751.34	0.381
751.53	0.234
751.72	0.128
751.91	0.178
752.10	0.193
752.29	0.558
752.47	0.194
752.66	0.434
752.85	0.277
753.04	0.285
753.23	0.048
753.42	0.103
753.61	0.200
753.80	0.401
753.98	0.542
754.17	0.403
754.36	0.302
754.55	-0.066
754.74	0.439
754.93	0.270
755.12	-0.157
755.30	0.626
755.49	0.009
755.68	0.515
755.87	-0.053
756.06	0.475
756.25	0.248
756.43	0.414
756.62	0.554
756.81	0.501
757.00	0.719
757.19	0.319
757.38	0.260
757.56	0.177
757.75	0.366
757.94	0.437
758.13	0.000
758.32	0.876
758.51	0.524
758.69	0.356
758.88	0.278
759.07	0.071
759.26	0.223
759.45	0.134
759.63	0.810
759.82	0.538
760.01	0.320
760.20	-0.382
760.39	0.646
760.57	0.111
760.76	0.611
760.95	0.475
761.14	0.708
761.33	0.605
761.51	0.568
761.70	0.348
761.89	0.172
762.08	0.833
762.27	0.619
762.45	0.421
762.64	0.452
762.83	0.432
763.02	0.421
763.21	0.328
763.39	0.738
763.58	0.344
763.77	0.460
763.96	0.683
764.14	0.904
764.33	0.182
764.52	0.662
764.71	0.227
764.89	0.507
765.08	0.951
765.27	-0.868
765.46	0.333
765.65	0.384
765.83	-0.135
766.02	0.270
766.21	0.000
766.40	0.726
766.58	0.603
766.77	0.627
766.96	0.507
767.15	0.923
767.33	0.107
767.52	1.158
767.71	0.250
767.90	0.298
768.08	0.917
768.27	0.176
768.46	0.226
768.64	0.179
768.83	0.642
769.02	0.830
769.21	0.000
769.39	0.187
769.58	0.428
769.77	0.308
769.96	0.938
770.14	0.836
770.33	0.439
770.52	0.812
770.70	-0.222
770.89	0.309
771.08	-0.375
771.27	1.702
771.45	0.736
771.64	0.035
771.83	1.036
772.01	0.420
772.20	0.953
772.39	0.245
772.57	0.073
772.76	1.280
772.95	0.949
773.14	0.594
773.32	0.018
773.51	0.815
773.70	0.547
773.88	0.522
774.07	-0.097
774.26	0.626
774.44	0.268
774.63	0.421
774.82	-0.312
775.00	0.264
775.19	1.673
775.38	0.207
775.56	0.076
775.75	0.940
775.94	-0.079
776.12	1.194
776.31	0.381
776.50	0.758
776.68	0.702
776.87	1.026
777.06	0.122
777.24	0.630
777.43	0.308
777.62	0.862
777.80	-0.266
777.99	-0.145
778.18	0.730
778.36	0.314
778.55	0.269
778.74	0.103
778.92	-0.498
779.11	1.389
779.29	-0.102
779.48	1.323
779.67	-0.226
779.85	0.222
780.04	1.083
780.23	1.498
780.41	0.386
780.60	0.428
780.79	0.259
780.97	0.901
781.16	0.275
781.34	0.358
781.53	0.398
781.72	0.274
781.90	0.643
782.09	1.708
782.28	0.563
782.46	0.804
782.65	0.979
782.83	0.867
783.02	0.040
783.21	0.059
783.39	1.269
783.58	0.347
783.76	0.325
783.95	-0.019
784.14	0.690
784.32	1.032
784.51	-0.345
784.69	0.054
784.88	0.545
785.06	-0.127
785.25	0.410
785.44	0.708
785.62	0.527
785.81	0.832
785.99	0.036
786.18	0.240
786.37	0.315
786.55	1.089
786.74	0.019
786.92	-0.119
787.11	0.455
787.29	-0.610
787.48	-0.040
787.67	0.690
787.85	-0.117
788.04	0.812
788.22	0.597
788.41	0.860
788.59	0.658
788.78	0.131
788.96	-0.366
789.15	0.096
789.34	0.268
789.52	-0.154
789.71	0.929
789.89	0.133
790.08	0.239
790.26	0.343
790.45	-0.159
790.63	-0.250
790.82	-0.315
791.00	0.210
791.19	0.885
791.38	0.560
791.56	0.570
791.75	-0.053
791.93	0.419
792.12	0.745
792.30	0.000
792.49	-0.103
792.67	0.224
792.86	-0.117
793.04	0.949
793.23	0.259
793.41	-0.519
793.60	1.249
793.78	0.052
793.97	0.626
794.15	0.695
794.34	1.132
794.52	0.364
794.71	0.341
794.89	0.567
795.08	-0.016
795.26	-0.276
795.45	-0.142
795.63	-0.155
795.82	0.447
796.00	-0.163
796.19	0.059
796.37	0.090
796.56	-0.312
796.74	1.160
796.93	0.178
797.11	0.348
797.30	0.633
797.48	0.738
797.67	0.388
797.85	0.499
798.04	0.874
798.22	-0.075
798.41	-0.687
798.59	-0.015
798.77	0.505
798.96	-0.077
799.14	0.015
799.33	0.242
799.51	-0.196
799.70	0.537
799.88	0.151
800.07	0.015
800.25	0.148
800.44	-0.220
800.62	0.103
800.80	0.849
800.99	0.370
801.17	-0.384
801.36	0.252
801.54	0.530
801.73	-0.294
801.91	-0.058
802.10	-0.058
802.28	0.247
802.46	1.007
802.65	-0.144
802.83	0.491
803.02	0.186
803.20	0.114
803.39	0.203
803.57	-0.194
803.75	0.075
803.94	-0.320
804.12	0.576
804.31	0.375
804.49	0.288
804.67	0.738
804.86	0.262
805.04	-0.051
805.23	1.054
805.41	0.252
805.59	0.454
805.78	-0.016
805.96	0.047
806.15	0.138
806.33	0.324
806.51	0.000
806.70	-0.350
806.88	-0.350
807.07	0.263
807.25	0.806
807.43	0.063
807.62	0.670
807.80	-0.127
807.99	0.328
808.17	0.046
808.35	-0.598
808.54	0.761
808.72	0.423
808.90	0.482
809.09	0.000
809.27	-0.166
809.46	0.497
809.64	0.136
809.82	-0.402
810.01	0.463
810.19	0.061
810.37	0.030
810.56	-0.194
810.74	0.539
810.92	0.180
811.11	-0.045
811.29	0.396
811.48	0.419
811.66	0.142
811.84	1.112
812.03	0.230
812.21	0.656
812.39	-0.097
812.58	0.493
812.76	-0.033
812.94	0.161
813.13	1.171
813.31	0.275
813.49	0.394
813.68	0.577
813.86	0.706
814.04	0.268
814.23	0.562
814.41	0.148
814.59	0.252
814.78	-0.621
814.96	0.690
815.14	0.311
815.33	0.212
815.51	0.062
815.69	0.934
815.87	-0.687
816.06	0.340
816.24	-0.330
816.42	0.953
816.61	1.153
816.79	0.522
816.97	-0.254
817.16	-0.037
817.34	0.978
817.52	0.266
817.70	-0.338
817.89	0.223
818.07	0.345
818.25	1.229
818.44	0.235
818.62	0.322
818.80	-0.106
818.98	0.178
819.17	0.381
819.35	-0.167
819.53	0.129
819.72	0.113
819.90	0.385
820.08	0.193
820.26	1.119
820.45	0.318
820.63	-0.139
820.81	-0.119
820.99	1.203
821.18	0.453
821.36	0.176
821.54	0.346
821.73	0.329
821.91	0.560
822.09	-0.179
822.27	-0.379
822.46	0.411
822.64	1.154
822.82	0.371
823.00	0.551
823.19	0.811
823.37	0.344
823.55	-0.086
823.73	0.513
823.91	0.659
824.10	0.092
824.28	0.445
824.46	0.853
824.64	0.119
824.83	0.368
825.01	1.242
825.19	0.189
825.37	0.313
825.56	0.879
825.74	0.393
825.92	-0.045
826.10	-0.022
826.28	-0.436
826.47	0.547
826.65	0.412
826.83	-0.751
827.01	0.458
827.19	0.825
827.38	-0.133
827.56	1.507
827.74	0.369
827.92	0.419
828.10	0.262
828.29	-0.985
828.47	1.938
828.65	-1.248
828.83	0.914
829.01	-0.888
829.20	0.229
829.38	-0.052
829.56	-0.491
829.74	1.082
829.92	2.024
830.10	1.122
830.29	0.236
830.47	-0.130
830.65	0.903
830.83	0.902
831.01	0.750
831.20	1.014
831.38	1.098
831.56	-0.402
831.74	0.721
831.92	0.051
832.10	0.157
832.29	0.676
832.47	1.183
832.65	1.196
832.83	0.028
833.01	0.334
833.19	0.273
833.37	0.405
833.56	1.316
833.74	0.501
833.92	1.917
834.10	1.559
834.28	0.912
834.46	-0.417
834.64	0.083
834.83	0.216
835.01	1.068
835.19	0.580
835.37	-0.194
835.55	-0.687
835.73	0.711
835.91	-1.384
836.09	0.192
836.28	0.823
836.46	1.181
836.64	0.142
836.82	0.224
837.00	0.028
837.18	-0.517
837.36	0.059
837.54	1.718
837.72	1.528
837.91	1.372
838.09	-0.062
838.27	1.286
838.45	0.349
838.63	0.162
838.81	-1.480
838.99	0.358
839.17	0.979
839.35	1.052
839.53	0.508
839.72	0.725
839.90	1.043
840.08	1.595
840.26	1.761
840.44	0.906
840.62	-0.164
840.80	0.465
840.98	0.171
841.16	1.699
841.34	0.033
841.52	-1.891
841.70	0.901
841.89	0.984
842.07	-1.063
842.25	0.787
842.43	0.800
842.61	-0.131
842.79	1.207
842.97	0.238
843.15	1.124
843.33	0.515
843.51	1.274
843.69	1.285
843.87	0.073
844.05	1.846
844.23	1.938
844.41	1.611
844.59	0.300
844.77	-0.830
844.95	-0.075
845.13	1.881
845.31	-0.037
845.50	1.211
845.68	-1.441
845.86	-0.738
846.04	-0.535
846.22	-0.765
846.40	0.184
846.58	0.220
846.76	-0.448
846.94	1.311
847.12	0.924
847.30	-0.186
847.48	2.112
847.66	0.499
847.84	1.628
848.02	1.299
848.20	1.546
848.38	0.904
848.56	0.314
848.74	-0.118
848.92	-0.955
849.10	1.491
849.28	0.122
849.46	-0.860
849.64	0.365
849.82	0.399
850.00	0.250
850.18	0.580
850.36	1.703
850.54	1.038
850.72	1.324
850.90	2.320
851.08	0.124
851.26	1.289
851.44	2.331
851.62	1.262
851.80	0.770
851.98	0.751
852.16	3.973
852.34	0.086
852.52	1.191
852.70	1.409
852.87	1.686
853.05	0.736
853.23	0.680
853.41	1.112
853.59	0.761
853.77	0.623
853.95	1.418
854.13	-0.568
854.31	1.517
854.49	1.593
854.67	-0.703
854.85	0.418
855.03	0.302
855.21	0.731
855.39	-1.234
855.57	1.386
855.75	1.184
855.93	1.349
856.11	-2.376
856.28	-0.119
856.46	0.957
856.64	0.691
856.82	1.319
857.00	-0.165
857.18	0.080
857.36	-1.075
857.54	-0.120
857.72	1.300
857.90	1.419
858.08	1.052
858.26	0.503
858.44	1.303
858.61	0.959
858.79	-1.599
858.97	0.384
859.15	1.033
859.33	1.802
859.51	-0.267
859.69	1.538
859.87	1.036
860.05	0.696
860.23	0.110
860.40	3.095
860.58	-0.329
860.76	2.141
860.94	0.600
861.12	0.942
861.30	1.754
861.48	-0.075
861.66	0.453
861.84	-0.115
862.01	0.466
862.19	1.481
862.37	0.505
862.55	0.038
862.73	1.452
862.91	0.340
863.09	1.607
863.27	0.977
863.44	1.292
863.62	1.321
863.80	0.477
863.98	0.217
864.16	2.513
864.34	-0.594
864.52	1.023
864.69	3.114
864.87	1.672
865.05	0.519
865.23	2.088
865.41	1.078
865.59	3.853
865.76	0.883
865.94	2.731
866.12	1.684
866.30	1.512
866.48	1.869
866.66	2.696
866.83	2.507
867.01	1.910
867.19	2.643
867.37	2.911
867.55	3.422
867.73	0.625
867.90	1.106
868.08	3.371
868.26	3.242
868.44	1.239
868.62	2.940
868.79	0.754
868.97	1.971
869.15	1.890
869.33	2.716
869.51	1.507
869.69	2.654
869.86	1.260
870.04	0.430
870.22	1.376
870.40	2.657
870.57	1.659
870.75	2.535
870.93	0.298
871.11	1.242
871.29	1.444
871.46	1.529
871.64	1.545
871.82	1.219
872.00	1.052
872.18	2.757
872.35	0.999
872.53	1.556
872.71	2.123
872.89	1.741
873.06	2.205
873.24	-0.476
873.42	2.610
873.60	3.888
873.77	1.248
873.95	1.665
874.13	1.416
874.31	2.462
874.49	2.969
874.66	2.144
874.84	2.307
875.02	1.309
875.20	2.123
875.37	0.795
875.55	3.862
875.73	2.766
875.91	2.075
876.08	2.047
876.26	3.194
876.44	3.444
876.61	2.454
876.79	4.106
876.97	4.830
877.15	5.629
877.32	5.567
877.50	7.309
877.68	7.587
877.86	8.576
878.03	9.482
878.21	11.081
878.39	10.542
878.56	13.060
878.74	14.281
878.92	15.418
879.10	15.073
879.27	15.852
879.45	16.080
879.63	17.980
879.80	18.152
879.98	20.817
880.16	22.439
880.34	21.392
880.51	20.183
880.69	22.165
880.87	22.386
881.04	20.134
881.22	20.465
881.40	19.715
881.57	18.159
881.75	19.814
881.93	16.850
882.10	15.774
882.28	16.576
882.46	14.808
882.63	16.432
882.81	16.714
882.99	16.182
883.16	13.600
883.34	17.089
883.52	15.369
883.69	15.385
883.87	14.940
884.05	17.961
884.22	16.325
884.40	17.137
884.58	18.139
884.75	19.926
884.93	20.872
885.11	22.950
885.28	23.557
885.46	24.662
885.64	28.512
885.81	28.544
885.99	33.720
886.17	34.905
886.34	42.210
886.52	43.238
886.70	50.265
886.87	54.659
887.05	58.333
887.22	62.651
887.40	64.794
887.58	68.471
887.75	69.882
887.93	69.101
888.11	68.956
888.28	72.352
888.46	71.728
888.63	68.894
888.81	68.497
888.99	65.354
889.16	64.328
889.34	61.060
889.51	53.615
889.69	53.039
889.87	48.438
890.04	44.335
890.22	42.889
890.39	39.646
890.57	35.762
890.75	33.511
890.92	29.247
891.10	29.384
891.27	25.455
891.45	23.686
891.63	22.214
891.80	21.265
891.98	20.408
892.15	21.392
892.33	20.139
892.51	19.131
892.68	19.008
892.86	18.763
893.03	18.240
893.21	18.995
893.38	18.347
893.56	18.368
893.74	17.523
893.91	18.491
894.09	19.498
894.26	17.393
894.44	18.687
894.61	18.026
894.79	21.894
894.96	21.842
895.14	23.163
895.32	24.245
895.49	24.547
895.67	25.549
895.84	26.860
896.02	30.503
896.19	31.340
896.37	29.947
896.54	35.834
896.72	37.145
896.89	37.099
897.07	39.112
897.25	40.640
897.42	41.927
897.60	42.814
897.77	42.739
897.95	42.682
898.12	46.141
898.30	45.202
898.47	44.725
898.65	42.379
898.82	41.537
899.00	40.592
899.17	38.251
899.35	36.249
899.52	36.605
899.70	32.594
899.87	31.010
900.05	28.139
900.22	26.254
900.40	24.526
900.57	22.014
900.75	22.218
900.92	19.918
901.10	19.060
901.27	16.715
901.45	15.132
901.62	15.364
901.80	14.900
901.97	13.266
902.15	12.913
902.32	11.239
902.50	12.132
902.67	11.086
902.85	11.077
903.02	11.045
903.20	10.989
903.37	10.520
903.54	10.348
903.72	9.461
903.89	10.103
904.07	10.170
904.24	10.922
904.42	8.798
904.59	8.545
904.77	8.605
904.94	8.352
905.12	7.721
905.29	7.796
905.47	7.240
905.64	6.319
905.81	8.640
905.99	9.781
906.16	7.671
906.34	9.736
906.51	7.047
906.69	7.481
906.86	7.822
907.03	9.883
907.21	9.002
907.38	10.900
907.56	9.319
907.73	9.463
907.91	12.658
908.08	10.790
908.25	10.488
908.43	13.582
908.60	11.360
908.78	14.261
908.95	14.478
909.13	14.976
909.30	15.852
909.47	16.582
909.65	15.997
909.82	16.370
910.00	17.828
910.17	19.083
910.34	20.392
910.52	19.983
910.69	23.320
910.87	24.897
911.04	25.866
911.21	26.574
911.39	26.576
911.56	25.476
911.73	25.042
911.91	32.898
912.08	30.328
912.26	31.194
912.43	33.552
912.60	34.030
912.78	34.093
912.95	33.858
913.13	32.013
913.30	33.783
913.47	35.876
913.65	33.238
913.82	32.371
913.99	31.721
914.17	31.603
914.34	28.814
914.51	29.534
914.69	28.890
914.86	27.408
915.03	26.822
915.21	25.981
915.38	26.610
915.56	26.436
915.73	26.221
915.90	23.669
916.08	19.766
916.25	19.915
916.42	16.424
916.60	17.957
916.77	18.286
916.94	18.682
917.12	14.510
917.29	15.412
917.46	18.228
917.64	16.068
917.81	16.151
917.98	16.008
918.16	16.528
918.33	14.483
918.50	14.728
918.67	13.681
918.85	15.884
919.02	15.668
919.19	13.126
919.37	15.683
919.54	14.585
919.71	14.363
919.89	17.391
920.06	15.279
920.23	16.575
920.41	14.231
920.58	16.676
920.75	17.994
920.92	16.329
921.10	17.126
921.27	14.857
921.44	19.250
921.62	19.741
921.79	18.177
921.96	20.222
922.13	18.640
922.31	22.983
922.48	23.337
922.65	27.321
922.82	26.464
923.00	22.755
923.17	25.723
923.34	31.238
923.52	28.913
923.69	28.317
923.86	28.393
924.03	35.724
924.21	34.917
924.38	35.335
924.55	41.860
924.72	39.168
924.90	47.339
925.07	47.234
925.24	50.071
925.41	55.322
925.59	56.153
925.76	53.798
925.93	64.191
926.10	60.394
926.28	67.837
926.45	69.846
926.62	69.497
926.79	73.954
926.96	77.177
927.14	76.707
927.31	75.485
927.48	78.782
927.65	80.172
927.83	85.266
928.00	81.923
928.17	78.216
928.34	76.398
928.51	77.025
928.69	78.145
928.86	77.961
929.03	77.085
929.20	80.875
929.37	79.230
929.55	74.502
929.72	72.033
929.89	72.214
930.06	66.253
930.23	68.770
930.41	69.992
930.58	66.638
930.75	66.306
930.92	61.443
931.09	62.776
931.27	60.986
931.44	61.638
931.61	57.167
931.78	61.598
931.95	54.937
932.12	55.973
932.30	51.444
932.47	52.132
932.64	58.062
932.81	52.539
932.98	55.943
933.16	55.536
933.33	56.826
933.50	58.577
933.67	56.551
933.84	61.302
934.01	63.676
934.18	59.238
934.36	63.023
934.53	59.246
934.70	67.446
934.87	60.095
935.04	66.131
935.21	66.225
935.38	66.573
935.56	66.732
935.73	63.383
935.90	70.761
936.07	66.837
936.24	76.433
936.41	72.829
936.58	72.806
936.76	75.742
936.93	79.075
937.10	78.285
937.27	80.905
937.44	78.765
937.61	80.508
937.78	83.939
937.95	77.661
938.13	82.398
938.30	81.758
938.47	81.391
938.64	81.685
938.81	81.303
938.98	82.577
939.15	90.000
939.32	83.405
939.49	79.462
939.66	83.948
939.84	85.786
940.01	81.807
940.18	85.414
940.35	76.549
940.52	80.549
940.69	73.472
940.86	86.381
941.03	74.493
941.20	65.969
941.37	69.467
941.54	72.944
941.71	68.736
941.89	72.474
942.06	71.031
942.23	66.007
942.40	61.724
942.57	60.300
942.74	72.432
942.91	67.090
943.08	61.802
943.25	65.195
943.42	65.871
943.59	61.861
943.76	57.085
943.93	65.894
944.10	59.392
944.27	57.373
944.44	58.786
944.61	63.549
944.79	54.366
944.96	68.351
945.13	60.887
945.30	62.737
945.47	56.849
945.64	65.744
945.81	56.787
945.98	57.655
946.15	61.394
946.32	69.680
946.49	73.399
946.66	73.118
946.83	59.066
947.00	66.029
947.17	71.935
947.34	67.103
947.51	66.769
947.68	69.558
947.85	64.114
948.02	73.036
948.19	72.655
948.36	69.882
948.53	73.875
948.70	81.900
948.87	84.072
949.04	76.261
949.21	84.653
949.38	87.415
949.55	82.137
949.72	75.453
949.89	77.969
950.06	85.362
950.23	86.027
950.40	74.959
950.57	88.468
950.74	91.343
950.91	87.868
951.08	83.798
951.25	78.137
951.42	95.652
951.59	79.928
951.76	78.788
951.93	82.014
952.10	74.094
952.27	75.439
952.44	77.143
952.61	73.333
952.77	75.712
952.94	80.081
953.11	71.429
953.28	77.547
953.45	76.423
953.62	58.258
953.79	71.296
953.96	58.789
954.13	68.966
954.30	73.185
954.47	61.593
954.64	63.654
954.81	66.197
954.98	55.433
955.15	57.200
955.32	58.524
955.49	62.231
955.65	57.400
955.82	55.601
955.99	54.011
956.16	59.961
956.33	53.280
956.50	49.611
956.67	53.320
956.84	53.184
957.01	60.489
957.18	44.533
957.35	50.202
957.52	45.582
957.68	61.607
957.85	45.957
958.02	44.862
958.19	48.537
958.36	52.607
958.53	54.167
958.70	48.608
958.87	44.295
959.04	42.051
959.21	49.119
959.37	62.338
959.54	59.770
959.71	50.000
959.88	50.542
960.05	60.333
960.22	59.466
960.39	48.551
960.56	55.921
960.72	62.578
960.89	55.202
961.06	61.042
961.23	53.061
961.40	57.246
961.57	56.944
961.74	60.277
961.90	57.980
962.07	67.511
962.24	56.464
962.41	57.174
962.58	64.957
962.75	60.251
962.92	61.438
963.08	64.944
963.25	73.536
963.42	65.707
963.59	65.678
963.76	81.490
963.93	68.349
964.10	73.023
964.26	68.201
964.43	67.667
964.60	76.706
964.77	70.370
964.94	73.821
965.10	72.727
965.27	66.362
965.44	68.109
965.61	80.435
965.78	67.273
965.95	64.200
966.11	72.581
966.28	59.003
966.45	53.591
966.62	55.529
966.79	59.524
966.95	69.683
967.12	59.459
967.29	53.741
967.46	56.561
967.63	50.000
967.79	54.664
967.96	55.973
968.13	47.368
968.30	43.701
968.47	47.917
968.63	50.959
968.80	40.882
968.97	41.230
969.14	44.554
969.31	36.325
969.47	42.939
969.64	42.084
969.81	36.364
969.98	39.461
970.14	50.325
970.31	40.652
970.48	34.375
970.65	36.706
970.81	37.500
970.98	38.758
971.15	26.205
971.32	30.444
971.48	37.582
971.65	32.884
971.82	25.282
971.99	27.249
972.15	38.242
972.32	26.995
972.49	31.130
972.66	31.920
972.82	30.023
972.99	31.294
973.16	26.282
973.33	38.389
973.49	25.441
973.66	25.132
973.83	32.908
974.00	27.027
974.16	34.318
974.33	23.743
974.50	35.266
974.67	27.901
974.83	30.024
975.00	30.144
975.17	32.184
975.33	39.019
975.50	36.290
975.67	28.571
975.84	34.829
976.00	34.353
976.17	43.294
976.34	34.673
976.50	37.569
976.67	29.128
976.84	26.020
977.00	34.279
977.17	30.986
977.34	38.517
977.50	36.461
977.67	42.009
977.84	42.980
978.01	33.246
978.17	47.607
978.34	49.380
978.51	40.920
978.67	40.367
978.84	40.690
979.01	39.623
979.17	49.684
979.34	49.482
979.51	49.000
979.67	55.583
979.84	58.195
980.01	48.292
980.17	62.356
980.34	57.552
980.51	71.824
980.67	64.675
980.84	62.680
981.01	62.626
981.17	59.216
981.34	57.053
981.50	64.904
981.67	67.246
981.84	67.482
982.00	62.629
982.17	68.193
982.34	67.991
982.50	71.748
982.67	72.351
982.84	76.168
983.00	77.546
983.17	72.936
983.33	76.000
983.50	69.283
983.67	69.163
983.83	70.601
984.00	77.163
984.17	69.313
984.33	71.000
984.50	70.825
984.66	81.186
984.83	70.513
985.00	69.556
985.16	86.582
985.33	75.455
985.49	72.399
985.66	76.082
985.83	71.516
985.99	74.120
986.16	66.732
986.32	71.486
986.49	80.543
986.66	74.715
986.82	65.939
986.99	72.727
987.15	77.103
987.32	86.321
987.49	67.195
987.65	72.727
987.82	72.423
987.98	66.197
988.15	75.573
988.31	58.392
988.48	73.223
988.65	74.868
988.81	70.470
988.98	49.901
989.14	72.512
989.31	59.881
989.47	68.510
989.64	68.468
989.80	70.657
989.97	68.615
990.14	73.191
990.30	60.577
990.47	65.534
990.63	56.845
990.80	83.093
990.96	63.364
991.13	61.830
991.29	84.561
991.46	76.960
991.62	73.488
991.79	70.772
991.95	70.655
992.12	75.057
992.29	70.122
992.45	84.633
992.62	74.215
992.78	78.197
992.95	88.038
993.11	78.523
993.28	107.090
993.44	76.368
993.61	75.934
993.77	96.859
993.94	75.973
994.10	85.443
994.27	87.286
994.43	83.755
994.60	92.750
994.76	84.988
994.93	93.394
995.09	98.652
995.26	106.311
995.42	100.973
995.59	106.596
995.75	98.843
995.92	91.059
996.08	95.059
996.25	96.296
996.41	87.255
996.58	94.292
996.74	84.501
996.91	97.650
997.07	90.976
997.23	94.853
997.40	87.638
997.56	84.112
997.73	102.250
997.89	76.957
998.06	77.974
998.22	80.835
998.39	73.529
998.55	87.529
998.72	82.243
998.88	94.000
999.05	74.239
999.21	73.270
999.37	76.064
999.54	63.384
999.70	67.834
999.87	75.628
1000.03	73.744
1000.20	74.038
1000.36	60.911
1000.52	57.741
1000.69	63.232
1000.85	66.523
1001.02	64.840
1001.18	56.788
1001.35	69.427
1001.51	61.024
1001.67	62.584
1001.84	56.962
1002.00	54.832
1002.17	46.330
1002.33	61.593
1002.50	58.239
1002.66	45.972
1002.82	50.503
1002.99	51.733
1003.15	54.135
1003.32	60.652
1003.48	38.756
1003.64	48.346
1003.81	62.640
1003.97	42.466
1004.14	68.483
1004.30	53.317
1004.46	59.008
1004.63	48.052
1004.79	50.526
1004.95	40.874
1005.12	57.418
1005.28	59.162
1005.45	51.613
1005.61	61.614
1005.77	48.768
1005.94	43.274
1006.10	57.935
1006.26	43.885
1006.43	54.265
1006.59	48.876
1006.76	54.090
1006.92	58.353
1007.08	61.005
1007.25	50.331
1007.41	58.993
1007.57	41.912
1007.74	48.363
1007.90	49.742
1008.06	56.510
1008.23	54.103
1008.39	60.251
1008.55	54.378
1008.72	57.107
1008.88	68.000
1009.04	60.259
1009.21	58.950
1009.37	52.105
1009.53	63.070
1009.70	72.043
1009.86	75.132
1010.02	62.187
1010.19	67.714
1010.35	64.012
1010.51	61.814
1010.68	72.222
1010.84	66.929
1011.00	72.051
1011.17	78.393
1011.33	65.526
1011.49	62.147
1011.66	69.487
1011.82	74.169
1011.98	81.873
1012.14	63.836
1012.31	83.776
1012.47	65.473
1012.63	73.563
1012.80	62.169
1012.96	62.834
1013.12	81.111
1013.29	71.191
1013.45	61.619
1013.61	63.049
1013.77	66.150
1013.94	74.151
1014.10	55.152
1014.26	72.030
1014.43	63.462
1014.59	62.500
1014.75	49.223
1014.91	55.378
1015.08	48.910
1015.24	60.174
1015.40	42.500
1015.56	41.579
1015.73	49.630
1015.89	38.978
1016.05	40.047
1016.21	41.645
1016.38	48.525
1016.54	50.585
1016.70	41.471
1016.86	43.391
1017.03	32.698
1017.19	39.401
1017.35	39.151
1017.51	33.151
1017.68	46.494
1017.84	31.765
1018.00	41.775
1018.16	39.444
1018.33	34.270
1018.49	42.222
1018.65	31.335
1018.81	33.028
1018.97	18.697
1019.14	31.063
1019.30	33.428
1019.46	33.333
1019.62	10.156
1019.79	36.050
1019.95	27.249
1020.11	21.184
1020.27	19.016
1020.43	29.825
1020.60	36.364
1020.76	37.828
1020.92	35.294
1021.08	30.921
1021.24	32.298
1021.41	24.333
1021.57	28.448
1021.73	31.148
1021.89	23.355
1022.05	21.254
1022.21	30.278
1022.38	22.571
1022.54	22.350
1022.70	26.667
1022.86	27.954
1023.02	37.971
1023.19	36.184
1023.35	16.077
1023.51	16.987
1023.67	18.895
1023.83	25.954
1023.99	35.563
1024.16	11.508
1024.32	18.447
1024.48	21.631
1024.64	18.874
1024.80	15.603
1024.96	25.000
1025.12	19.436
1025.29	22.261
1025.45	21.429
1025.61	22.903
1025.77	23.105
1025.93	36.957
1026.09	17.761
1026.26	39.527
1026.42	30.328
1026.58	27.336
1026.74	12.941
1026.90	32.024
1027.06	25.083
1027.22	24.161
1027.38	30.851
1027.55	27.184
1027.71	31.977
1027.87	34.576
1028.03	27.490
1028.19	24.746
1028.35	29.520
1028.51	23.052
1028.67	25.095
1028.83	15.152
1029.00	31.724
1029.16	43.438
1029.32	16.165
1029.48	23.828
1029.64	32.787
1029.80	24.797
1029.96	57.143
1030.12	32.601
1030.28	19.649
1030.44	28.175
1030.61	39.241
1030.77	35.656
1030.93	34.524
1031.09	16.078
1031.25	30.964
1031.41	36.546
1031.57	54.852
1031.73	30.000
1031.89	40.636
1032.05	41.573
1032.21	22.041
1032.37	29.137
1032.53	42.697
1032.69	57.082
1032.86	24.519
1033.02	38.538
1033.18	46.538
1033.34	33.333
1033.50	37.824
1033.66	41.509
1033.82	61.538
1033.98	21.983
1034.14	49.309
1034.30	34.351
1034.46	40.602
1034.62	46.275
1034.78	35.662
1034.94	16.245
1035.10	40.777
1035.26	41.924
1035.42	45.695
1035.58	41.877
1035.74	33.610
1035.90	53.659
1036.06	33.708
1036.22	34.733
1036.38	37.445
1036.54	31.557
1036.70	31.250
1036.86	47.423
1037.02	36.264
1037.18	56.190
1037.34	51.984
1037.50	55.825
1037.66	23.684
1037.82	45.486
1037.98	49.821
1038.14	40.884
1038.30	26.923
1038.46	29.137
1038.62	21.596
1038.78	28.365
1038.94	51.724
1039.10	41.627
1039.26	59.483
1039.42	55.505
1039.58	43.787
1039.74	42.259
1039.90	35.000
1040.06	49.268
>>>>>End Processed Spectral Data<<<<<
