SpectraSuite Data File
++++++++++++++++++++++++++++++++++++
Date: Wed Jan 25 18:05:59 EET 2017
User: TheoProf
Dark Spectrum Present: Yes
Reference Spectrum Present: Yes
Number of Sampled Component Spectra: 1
Spectrometers: USB4C02475
Integration Time (usec): 64136 (USB4C02475)
Spectra Averaged: 1 (USB4C02475)
Boxcar Smoothing: 0 (USB4C02475)
Correct for Electrical Dark: No (USB4C02475)
Strobe/Lamp Enabled: No (USB4C02475)
Correct for Detector Non-linearity: No (USB4C02475)
Correct for Stray Light: No (USB4C02475)
Number of Pixels in Processed Spectrum: 3648
>>>>>Begin Processed Spectral Data<<<<<
344.91	58.333
345.13	58.333
345.35	58.333
345.57	107.143
345.79	400.000
346.00	-15.789
346.22	650.000
346.44	-31.034
346.66	-400.000
346.87	120.690
347.09	-380.000
347.31	136.957
347.53	27.451
347.74	126.316
347.96	110.714
348.18	91.667
348.40	157.895
348.61	7.692
348.83	-27.273
349.05	88.525
349.27	33.333
349.48	52.941
349.70	129.412
349.92	16.129
350.14	137.705
350.35	48.148
350.57	43.750
350.79	123.529
351.01	-3.077
351.22	60.000
351.44	64.103
351.66	-280.000
351.87	216.667
352.09	287.500
352.31	-42.857
352.53	101.667
352.74	158.621
352.96	102.000
353.18	-41.463
353.40	1250.000
353.61	100.000
353.83	-109.091
354.05	40.000
354.26	77.273
354.48	78.571
354.70	-94.737
354.92	19.231
355.13	86.207
355.35	33.962
355.57	23.529
355.78	74.194
356.00	100.000
356.22	110.959
356.44	42.188
356.65	-1.923
356.87	119.231
357.09	4.000
357.30	43.878
357.52	-133.333
357.74	-1.818
357.95	108.333
358.17	70.455
358.39	79.070
358.60	78.125
358.82	-69.231
359.04	400.000
359.26	37.255
359.47	0.000
359.69	15.842
359.91	-55.000
360.12	310.000
360.34	118.919
360.56	241.667
360.77	58.974
360.99	50.000
361.21	42.857
361.42	46.809
361.64	437.500
361.86	-37.500
362.07	58.537
362.29	-4.545
362.51	109.524
362.72	530.769
362.94	60.000
363.16	68.182
363.37	48.438
363.59	48.000
363.81	131.250
364.02	79.592
364.24	-100.000
364.46	13.462
364.67	-50.000
364.89	9.091
365.11	-25.926
365.32	14.286
365.54	-215.789
365.76	51.724
365.97	0.000
366.19	172.727
366.41	321.429
366.62	62.857
366.84	214.286
367.05	38.182
367.27	51.515
367.49	109.677
367.70	77.143
367.92	44.737
368.14	26.190
368.35	0.000
368.57	45.570
368.79	56.604
369.00	34.694
369.22	220.000
369.43	109.375
369.65	67.500
369.87	54.286
370.08	-30.556
370.30	320.000
370.51	560.000
370.73	43.939
370.95	34.615
371.16	53.704
371.38	362.500
371.60	-1033.333
371.81	39.474
372.03	62.319
372.24	175.000
372.46	13.793
372.68	112.500
372.89	66.667
373.11	28.814
373.32	-3.704
373.54	55.263
373.76	146.939
373.97	37.838
374.19	-10.256
374.40	-20.690
374.62	-90.625
374.84	112.000
375.05	-24.074
375.27	32.000
375.48	-158.824
375.70	82.759
375.92	32.692
376.13	13.333
376.35	-41.270
376.56	371.429
376.78	22.727
376.99	32.308
377.21	18.605
377.43	61.538
377.64	24.675
377.86	46.429
378.07	-120.000
378.29	59.091
378.51	80.247
378.72	67.123
378.94	48.571
379.15	63.158
379.37	58.000
379.58	256.250
379.80	16.667
380.01	-18.421
380.23	31.111
380.45	-18.421
380.66	7.246
380.88	150.000
381.09	-14.062
381.31	53.125
381.52	-139.130
381.74	67.368
381.95	30.000
382.17	27.273
382.39	-24.138
382.60	33.333
382.82	88.000
383.03	-112.500
383.25	46.250
383.46	-31.579
383.68	81.818
383.89	36.190
384.11	11.864
384.32	76.744
384.54	18.182
384.76	58.696
384.97	23.529
385.19	10.417
385.40	16.129
385.62	27.586
385.83	28.571
386.05	71.667
386.26	-114.815
386.48	60.656
386.69	14.815
386.91	0.000
387.12	43.077
387.34	38.462
387.55	-161.111
387.77	23.288
387.98	54.902
388.20	23.684
388.41	-54.286
388.63	64.000
388.84	29.412
389.06	81.818
389.27	78.218
389.49	35.385
389.70	84.314
389.92	53.571
390.13	64.286
390.35	7.353
390.56	94.118
390.78	31.818
390.99	2.817
391.21	5.882
391.42	33.333
391.64	80.000
391.85	105.556
392.07	112.500
392.28	42.623
392.50	22.222
392.71	19.355
392.93	15.517
393.14	20.755
393.36	31.132
393.57	17.204
393.79	-400.000
394.00	56.863
394.22	13.889
394.43	34.409
394.65	6.452
394.86	1.923
395.08	44.304
395.29	20.000
395.50	17.073
395.72	74.194
395.93	21.053
396.15	44.355
396.36	29.885
396.58	29.565
396.79	12.162
397.01	67.187
397.22	-19.403
397.44	33.613
397.65	27.500
397.87	113.514
398.08	17.949
398.29	60.294
398.51	42.667
398.72	42.424
398.94	14.035
399.15	14.851
399.37	38.060
399.58	17.021
399.80	18.627
400.01	33.333
400.22	10.185
400.44	34.444
400.65	30.882
400.87	39.655
401.08	9.091
401.30	-45.833
401.51	41.935
401.72	14.194
401.94	18.103
402.15	0.000
402.37	43.396
402.58	-33.333
402.80	38.356
403.01	4.938
403.22	12.632
403.44	25.000
403.65	47.794
403.87	40.000
404.08	10.256
404.30	16.923
404.51	29.661
404.72	15.603
404.94	10.687
405.15	10.135
405.37	-0.787
405.58	-62.857
405.79	-14.737
406.01	49.673
406.22	32.000
406.44	5.674
406.65	21.875
406.86	27.152
407.08	13.889
407.29	22.368
407.51	52.564
407.72	4.167
407.93	12.500
408.15	11.656
408.36	-6.569
408.58	35.135
408.79	8.451
409.00	22.581
409.22	32.240
409.43	26.950
409.64	-12.500
409.86	8.642
410.07	-3.165
410.29	8.879
410.50	-21.186
410.71	11.111
410.93	18.717
411.14	-6.748
411.35	26.144
411.57	-16.265
411.78	-1.183
412.00	25.175
412.21	-2.055
412.42	-7.186
412.64	3.788
412.85	18.713
413.06	11.927
413.28	-1.333
413.49	25.604
413.70	23.164
413.92	17.931
414.13	16.964
414.34	8.901
414.56	-14.724
414.77	17.059
414.98	9.948
415.20	6.936
415.41	3.333
415.63	7.456
415.84	11.275
416.05	38.261
416.27	-6.818
416.48	12.705
416.69	15.766
416.91	8.696
417.12	-2.083
417.33	11.392
417.55	-2.326
417.76	6.897
417.97	38.537
418.19	21.014
418.40	1.099
418.61	0.000
418.83	4.977
419.04	16.216
419.25	18.443
419.46	-8.734
419.68	26.667
419.89	-6.417
420.10	7.531
420.32	18.327
420.53	15.663
420.74	13.846
420.96	20.319
421.17	-0.791
421.38	0.766
421.60	10.833
421.81	9.167
422.02	16.858
422.23	-5.809
422.45	7.407
422.66	2.500
422.87	-9.542
423.09	-15.419
423.30	-1.389
423.51	16.605
423.73	23.377
423.94	22.491
424.15	27.799
424.36	21.250
424.58	18.339
424.79	10.891
425.00	-2.113
425.22	9.333
425.43	12.319
425.64	1.948
425.85	-10.121
426.07	4.732
426.28	5.137
426.49	2.214
426.71	4.094
426.92	-2.959
427.13	5.611
427.34	13.636
427.56	22.024
427.77	-12.891
427.98	-2.016
428.19	-6.564
428.41	4.096
428.62	-4.452
428.83	7.799
429.04	7.764
429.26	0.295
429.47	17.231
429.68	-11.385
429.89	13.095
430.11	6.250
430.32	12.401
430.53	9.048
430.74	0.000
430.96	22.775
431.17	6.838
431.38	1.290
431.59	-2.752
431.81	4.839
432.02	-10.393
432.23	8.864
432.44	2.821
432.66	-1.676
432.87	-5.167
433.08	13.426
433.29	-3.299
433.51	13.480
433.72	12.881
433.93	6.294
434.14	9.624
434.35	-3.874
434.57	7.338
434.78	3.614
434.99	7.543
435.20	11.845
435.42	14.139
435.63	14.207
435.84	13.870
436.05	16.226
436.26	1.351
436.48	15.140
436.69	9.574
436.90	10.749
437.11	8.380
437.32	8.142
437.54	10.811
437.75	16.899
437.96	6.786
438.17	10.979
438.38	10.040
438.60	10.634
438.81	3.012
439.02	11.660
439.23	7.407
439.44	2.930
439.66	7.679
439.87	8.527
440.08	18.595
440.29	7.558
440.50	11.845
440.72	7.235
440.93	11.765
441.14	1.912
441.35	0.388
441.56	6.061
441.77	6.568
441.99	5.473
442.20	4.122
442.41	3.220
442.62	9.483
442.83	4.392
443.04	4.419
443.26	10.686
443.47	15.188
443.68	7.576
443.89	2.026
444.10	11.649
444.31	0.726
444.53	7.179
444.74	9.810
444.95	2.351
445.16	2.181
445.37	0.485
445.58	3.710
445.80	13.086
446.01	10.824
446.22	10.427
446.43	11.350
446.64	7.657
446.85	6.412
447.06	9.957
447.28	12.135
447.49	9.119
447.70	10.092
447.91	6.486
448.12	13.200
448.33	11.586
448.54	5.255
448.76	10.242
448.97	5.642
449.18	6.624
449.39	5.819
449.60	10.534
449.81	8.631
450.02	8.181
450.23	8.854
450.45	7.632
450.66	12.201
450.87	13.736
451.08	18.812
451.29	25.174
451.50	31.094
451.71	28.627
451.92	39.828
452.13	45.647
452.35	54.113
452.56	61.423
452.77	73.677
452.98	85.753
453.19	79.693
453.40	84.121
453.61	93.289
453.82	95.207
454.03	92.147
454.25	93.677
454.46	99.199
454.67	88.517
454.88	84.227
455.09	88.764
455.30	94.046
455.51	88.483
455.72	90.353
455.93	97.792
456.14	94.529
456.35	89.474
456.56	97.525
456.78	99.169
456.99	92.040
457.20	91.362
457.41	93.275
457.62	83.251
457.83	92.637
458.04	85.699
458.25	91.192
458.46	91.138
458.67	81.207
458.88	94.249
459.09	94.833
459.30	93.889
459.51	95.016
459.73	102.766
459.94	90.936
460.15	97.444
460.36	95.174
460.57	91.809
460.78	93.534
460.99	89.694
461.20	80.871
461.41	86.166
461.62	92.252
461.83	88.628
462.04	90.317
462.25	92.403
462.46	96.182
462.67	89.693
462.88	95.061
463.09	97.954
463.30	91.933
463.51	97.929
463.72	89.267
463.93	94.223
464.15	92.187
464.36	93.150
464.57	95.984
464.78	82.819
464.99	83.148
465.20	92.614
465.41	96.453
465.62	90.609
465.83	95.780
466.04	93.386
466.25	90.318
466.46	92.932
466.67	94.675
466.88	97.226
467.09	90.816
467.30	92.779
467.51	91.551
467.72	94.228
467.93	94.919
468.14	88.118
468.35	90.987
468.56	90.195
468.77	90.643
468.98	89.693
469.19	95.521
469.40	91.953
469.61	95.331
469.82	94.226
470.03	92.209
470.24	94.110
470.45	91.686
470.66	92.542
470.87	94.758
471.08	96.689
471.29	100.355
471.50	100.056
471.71	100.284
471.92	98.338
472.13	93.622
472.34	97.889
472.55	90.987
472.76	97.800
472.97	94.357
473.18	96.853
473.39	99.186
473.60	100.000
473.81	93.455
474.01	95.802
474.22	98.612
474.43	101.529
474.64	95.243
474.85	92.901
475.06	90.267
475.27	93.902
475.48	93.704
475.69	90.126
475.90	96.738
476.11	94.409
476.32	93.979
476.53	96.180
476.74	94.836
476.95	95.922
477.16	91.371
477.37	98.668
477.58	91.867
477.79	92.499
478.00	89.954
478.21	90.791
478.41	93.830
478.62	92.050
478.83	94.914
479.04	94.809
479.25	95.020
479.46	95.114
479.67	95.092
479.88	95.320
480.09	98.454
480.30	99.701
480.51	96.829
480.72	94.065
480.93	90.065
481.14	91.393
481.34	90.036
481.55	90.657
481.76	91.451
481.97	93.553
482.18	95.167
482.39	90.566
482.60	92.190
482.81	94.036
483.02	96.559
483.23	94.112
483.44	99.031
483.65	97.149
483.85	97.876
484.06	95.950
484.27	99.235
484.48	97.530
484.69	100.124
484.90	101.822
485.11	98.120
485.32	98.807
485.53	99.728
485.73	99.297
485.94	97.895
486.15	96.121
486.36	97.390
486.57	94.870
486.78	96.654
486.99	98.648
487.20	98.100
487.41	94.597
487.61	95.274
487.82	97.872
488.03	95.258
488.24	93.965
488.45	95.946
488.66	94.064
488.87	94.270
489.08	97.080
489.28	99.508
489.49	99.547
489.70	99.358
489.91	99.226
490.12	96.015
490.33	93.031
490.54	95.769
490.74	96.192
490.95	100.628
491.16	98.479
491.37	98.068
491.58	95.066
491.79	95.322
492.00	96.478
492.20	96.235
492.41	96.620
492.62	94.279
492.83	98.330
493.04	99.503
493.25	96.362
493.45	100.477
493.66	95.073
493.87	94.703
494.08	95.359
494.29	97.415
494.50	96.528
494.70	93.995
494.91	100.576
495.12	98.044
495.33	100.228
495.54	98.294
495.75	97.757
495.95	98.507
496.16	94.150
496.37	95.705
496.58	96.427
496.79	95.449
496.99	94.234
497.20	96.689
497.41	94.100
497.62	95.621
497.83	95.694
498.04	97.066
498.24	97.264
498.45	97.778
498.66	98.169
498.87	98.095
499.08	95.271
499.28	95.491
499.49	95.088
499.70	96.145
499.91	93.323
500.12	90.407
500.32	86.575
500.53	84.432
500.74	76.031
500.95	71.247
501.15	61.594
501.36	56.059
501.57	46.022
501.78	40.384
501.99	34.195
502.19	29.207
502.40	23.190
502.61	16.798
502.82	12.534
503.02	8.565
503.23	6.212
503.44	4.197
503.65	2.779
503.86	3.492
504.06	2.185
504.27	2.291
504.48	1.553
504.69	1.521
504.89	2.033
505.10	2.440
505.31	2.104
505.52	2.154
505.72	1.435
505.93	2.718
506.14	2.185
506.35	1.108
506.55	1.158
506.76	2.311
506.97	1.141
507.18	1.267
507.38	1.626
507.59	1.219
507.80	1.550
508.01	1.800
508.21	0.700
508.42	0.810
508.63	1.226
508.84	1.899
509.04	1.215
509.25	0.853
509.46	0.947
509.67	0.586
509.87	1.816
510.08	1.234
510.29	1.345
510.49	0.230
510.70	1.079
510.91	1.354
511.12	1.110
511.32	0.703
511.53	0.714
511.74	1.911
511.94	1.634
512.15	0.956
512.36	1.579
512.57	0.910
512.77	0.377
512.98	0.476
513.19	1.082
513.39	0.599
513.60	0.972
513.81	0.546
514.01	0.389
514.22	1.382
514.43	1.204
514.64	0.631
514.84	0.745
515.05	0.702
515.26	1.085
515.46	1.241
515.67	0.841
515.88	0.611
516.08	0.236
516.29	0.994
516.50	1.586
516.70	0.690
516.91	0.621
517.12	0.849
517.32	1.582
517.53	0.904
517.74	1.144
517.95	0.829
518.15	1.045
518.36	0.433
518.57	0.430
518.77	0.198
518.98	1.228
519.19	0.614
519.39	0.741
519.60	1.005
519.80	0.263
520.01	0.848
520.22	0.785
520.42	0.954
520.63	0.732
520.84	0.433
521.04	0.346
521.25	-0.145
521.46	0.517
521.66	0.932
521.87	0.929
522.08	0.835
522.28	1.011
522.49	0.772
522.70	0.288
522.90	0.414
523.11	0.497
523.31	1.053
523.52	0.519
523.73	0.568
523.93	1.160
524.14	0.602
524.35	0.385
524.55	0.675
524.76	0.860
524.97	1.033
525.17	0.463
525.38	1.458
525.58	1.042
525.79	0.761
526.00	1.011
526.20	0.902
526.41	0.724
526.61	0.503
526.82	1.168
527.03	0.492
527.23	1.222
527.44	0.640
527.64	0.413
527.85	0.566
528.06	0.558
528.26	0.153
528.47	1.591
528.68	0.369
528.88	0.213
529.09	0.778
529.29	0.934
529.50	1.156
529.70	0.700
529.91	0.175
530.12	0.852
530.32	1.285
530.53	0.811
530.73	0.781
530.94	0.320
531.15	0.704
531.35	1.156
531.56	0.501
531.76	1.091
531.97	0.610
532.17	1.238
532.38	0.976
532.59	0.894
532.79	0.146
533.00	0.949
533.20	0.681
533.41	0.239
533.61	0.744
533.82	1.035
534.03	0.897
534.23	0.523
534.44	0.760
534.64	0.537
534.85	1.667
535.05	0.648
535.26	0.802
535.46	1.064
535.67	1.353
535.88	1.534
536.08	0.928
536.29	0.960
536.49	1.117
536.70	0.905
536.90	0.934
537.11	0.808
537.31	0.788
537.52	1.309
537.72	1.071
537.93	1.297
538.13	1.203
538.34	0.965
538.55	1.000
538.75	1.332
538.96	1.507
539.16	1.185
539.37	1.770
539.57	1.536
539.78	1.379
539.98	1.261
540.19	1.261
540.39	1.769
540.60	2.097
540.80	1.680
541.01	1.937
541.21	1.941
541.42	1.773
541.62	1.630
541.83	2.116
542.03	1.965
542.24	2.173
542.44	2.438
542.65	2.512
542.85	2.798
543.06	2.695
543.26	2.753
543.47	2.439
543.67	2.888
543.88	2.497
544.08	2.601
544.29	2.366
544.49	2.732
544.70	2.018
544.90	2.545
545.11	2.621
545.31	2.417
545.52	2.870
545.72	3.414
545.93	3.597
546.13	3.163
546.34	3.189
546.54	2.979
546.75	3.034
546.95	2.750
547.15	3.014
547.36	2.655
547.56	2.622
547.77	2.510
547.97	2.081
548.18	2.719
548.38	2.426
548.59	1.913
548.79	2.571
549.00	2.316
549.20	1.853
549.41	2.191
549.61	2.305
549.81	2.390
550.02	2.108
550.22	2.014
550.43	2.606
550.63	2.702
550.84	2.109
551.04	2.587
551.25	2.654
551.45	2.764
551.65	2.687
551.86	3.235
552.06	3.869
552.27	4.969
552.47	6.076
552.68	8.373
552.88	11.708
553.08	15.793
553.29	21.592
553.49	27.452
553.70	33.583
553.90	41.690
554.11	50.359
554.31	57.944
554.51	66.276
554.72	68.752
554.92	73.634
555.13	77.738
555.33	80.432
555.53	85.002
555.74	88.186
555.94	89.502
556.15	91.117
556.35	91.069
556.56	94.527
556.76	94.724
556.96	96.787
557.17	97.540
557.37	97.762
557.58	98.790
557.78	100.274
557.98	97.699
558.19	98.140
558.39	97.159
558.59	95.854
558.80	96.594
559.00	99.164
559.21	97.996
559.41	97.063
559.61	97.494
559.82	97.402
560.02	98.351
560.23	96.549
560.43	95.577
560.63	95.360
560.84	96.836
561.04	97.768
561.24	98.435
561.45	101.016
561.65	99.642
561.85	99.423
562.06	98.292
562.26	97.725
562.47	99.138
562.67	99.949
562.87	99.649
563.08	96.633
563.28	98.901
563.48	97.341
563.69	95.495
563.89	96.670
564.09	99.277
564.30	98.015
564.50	98.345
564.70	97.950
564.91	96.706
565.11	96.798
565.31	95.796
565.52	95.486
565.72	95.778
565.92	95.881
566.13	93.890
566.33	95.547
566.53	98.597
566.74	97.535
566.94	98.147
567.14	96.393
567.35	96.601
567.55	96.158
567.75	95.532
567.96	97.558
568.16	96.243
568.36	94.478
568.57	95.858
568.77	96.219
568.97	96.520
569.18	98.634
569.38	97.948
569.58	97.483
569.79	97.709
569.99	98.338
570.19	96.019
570.39	97.585
570.60	95.310
570.80	96.391
571.00	97.713
571.21	97.841
571.41	100.530
571.61	103.090
571.82	100.130
572.02	101.781
572.22	103.839
572.42	103.402
572.63	102.809
572.83	103.752
573.03	101.109
573.24	103.270
573.44	101.030
573.64	99.431
573.84	98.700
574.05	98.310
574.25	97.154
574.45	96.016
574.66	98.641
574.86	100.515
575.06	103.616
575.26	104.077
575.47	105.063
575.67	102.312
575.87	100.543
576.07	98.644
576.28	96.568
576.48	93.226
576.68	93.862
576.88	95.015
577.09	97.792
577.29	98.936
577.49	100.069
577.69	100.552
577.90	98.560
578.10	99.543
578.30	97.436
578.50	98.298
578.71	99.068
578.91	100.632
579.11	101.135
579.31	100.045
579.52	101.789
579.72	101.937
579.92	99.919
580.12	100.590
580.33	100.660
580.53	100.986
580.73	99.798
580.93	99.758
581.13	99.449
581.34	95.975
581.54	94.126
581.74	94.576
581.94	94.292
582.15	94.591
582.35	96.910
582.55	95.254
582.75	95.011
582.95	95.857
583.16	94.665
583.36	95.533
583.56	96.241
583.76	96.406
583.96	97.883
584.17	97.583
584.37	99.966
584.57	100.704
584.77	100.076
584.97	100.312
585.18	98.746
585.38	98.397
585.58	96.967
585.78	96.318
585.98	96.785
586.19	97.921
586.39	99.421
586.59	101.044
586.79	100.935
586.99	101.140
587.20	103.375
587.40	102.187
587.60	100.958
587.80	100.609
588.00	99.114
588.20	100.272
588.41	102.127
588.61	103.447
588.81	102.832
589.01	100.172
589.21	99.162
589.41	98.594
589.62	97.982
589.82	95.298
590.02	96.098
590.22	95.855
590.42	95.512
590.62	97.848
590.83	97.353
591.03	98.562
591.23	98.809
591.43	99.320
591.63	100.993
591.83	99.652
592.03	98.668
592.24	98.187
592.44	97.168
592.64	96.497
592.84	95.360
593.04	93.097
593.24	93.533
593.44	95.329
593.65	96.365
593.85	97.808
594.05	100.498
594.25	102.159
594.45	102.312
594.65	101.555
594.85	99.723
595.06	97.869
595.26	96.032
595.46	97.728
595.66	98.004
595.86	98.206
596.06	96.901
596.26	96.066
596.46	95.562
596.66	94.577
596.87	97.180
597.07	96.715
597.27	97.449
597.47	95.714
597.67	96.999
597.87	95.212
598.07	94.433
598.27	96.377
598.47	96.852
598.67	98.712
598.88	98.809
599.08	97.537
599.28	98.287
599.48	96.538
599.68	97.848
599.88	96.218
600.08	97.574
600.28	96.271
600.48	96.031
600.68	96.793
600.88	96.162
601.09	96.354
601.29	96.812
601.49	95.857
601.69	94.856
601.89	94.723
602.09	93.565
602.29	95.131
602.49	95.815
602.69	96.680
602.89	97.895
603.09	97.023
603.29	95.785
603.49	96.799
603.69	95.381
603.90	93.768
604.10	95.211
604.30	96.332
604.50	98.475
604.70	99.116
604.90	97.079
605.10	96.256
605.30	94.743
605.50	95.435
605.70	93.651
605.90	94.339
606.10	96.780
606.30	97.797
606.50	99.492
606.70	101.115
606.90	101.520
607.10	102.193
607.30	101.326
607.50	100.458
607.70	97.960
607.90	96.587
608.10	97.046
608.30	97.188
608.50	96.118
608.70	94.589
608.90	92.495
609.11	92.139
609.31	91.703
609.51	90.994
609.71	90.693
609.91	88.789
610.11	84.739
610.31	81.059
610.51	75.677
610.71	68.619
610.91	61.224
611.11	54.656
611.31	45.853
611.51	40.399
611.71	35.163
611.91	32.182
612.11	28.843
612.31	24.912
612.51	20.837
612.71	16.714
612.91	13.323
613.11	10.425
613.31	7.889
613.51	6.189
613.71	5.260
613.91	3.863
614.11	3.236
614.31	2.586
614.50	2.269
614.70	2.079
614.90	1.922
615.10	1.485
615.30	1.608
615.50	1.493
615.70	1.482
615.90	1.632
616.10	1.192
616.30	1.113
616.50	1.164
616.70	1.234
616.90	1.101
617.10	1.120
617.30	0.985
617.50	0.975
617.70	0.817
617.90	0.961
618.10	0.990
618.30	0.979
618.50	0.922
618.70	1.061
618.90	0.838
619.10	0.820
619.30	0.822
619.49	0.597
619.69	1.095
619.89	0.857
620.09	0.790
620.29	1.065
620.49	0.684
620.69	0.676
620.89	0.539
621.09	0.634
621.29	0.983
621.49	0.683
621.69	0.674
621.89	0.875
622.09	0.675
622.29	0.890
622.48	0.732
622.68	0.639
622.88	0.811
623.08	0.634
623.28	0.367
623.48	0.640
623.68	0.729
623.88	0.550
624.08	0.761
624.28	0.727
624.48	0.604
624.67	0.881
624.87	0.733
625.07	0.674
625.27	0.480
625.47	0.550
625.67	0.422
625.87	0.668
626.07	0.679
626.27	0.629
626.47	0.750
626.66	0.761
626.86	0.389
627.06	0.328
627.26	0.535
627.46	0.507
627.66	0.726
627.86	0.669
628.06	0.389
628.25	0.687
628.45	0.346
628.65	0.515
628.85	0.782
629.05	0.715
629.25	0.766
629.45	0.442
629.65	0.391
629.84	0.525
630.04	0.629
630.24	0.471
630.44	0.901
630.64	0.606
630.84	0.569
631.04	0.759
631.23	0.677
631.43	0.597
631.63	0.603
631.83	0.560
632.03	0.667
632.23	0.444
632.42	0.630
632.62	0.585
632.82	0.516
633.02	0.635
633.22	0.560
633.42	0.622
633.62	0.522
633.81	0.569
634.01	0.566
634.21	0.587
634.41	0.717
634.61	0.702
634.80	0.518
635.00	0.615
635.20	0.739
635.40	0.760
635.60	0.473
635.80	0.598
635.99	0.660
636.19	0.622
636.39	0.589
636.59	0.770
636.79	0.619
636.98	0.529
637.18	0.713
637.38	0.690
637.58	0.734
637.78	0.632
637.97	0.968
638.17	0.649
638.37	0.819
638.57	0.609
638.77	0.559
638.96	0.689
639.16	0.884
639.36	0.555
639.56	0.664
639.76	0.844
639.95	0.720
640.15	0.561
640.35	0.610
640.55	0.650
640.75	0.834
640.94	0.818
641.14	0.641
641.34	0.751
641.54	0.755
641.73	0.818
641.93	0.703
642.13	0.920
642.33	0.639
642.53	0.441
642.72	0.913
642.92	0.891
643.12	0.969
643.32	0.875
643.51	0.816
643.71	0.797
643.91	1.034
644.11	0.882
644.30	1.078
644.50	0.907
644.70	0.886
644.90	0.907
645.09	0.844
645.29	1.049
645.49	0.972
645.69	0.988
645.88	0.895
646.08	0.813
646.28	1.089
646.48	0.941
646.67	0.968
646.87	1.091
647.07	1.144
647.26	1.143
647.46	1.253
647.66	1.141
647.86	1.008
648.05	1.372
648.25	1.292
648.45	1.166
648.65	1.345
648.84	1.599
649.04	1.347
649.24	1.622
649.43	1.439
649.63	1.520
649.83	1.320
650.03	1.704
650.22	1.601
650.42	1.597
650.62	1.654
650.81	1.881
651.01	1.745
651.21	1.917
651.40	1.803
651.60	2.133
651.80	2.194
652.00	2.442
652.19	2.444
652.39	2.955
652.59	3.200
652.78	4.069
652.98	4.872
653.18	5.970
653.37	7.745
653.57	9.910
653.77	12.775
653.96	16.717
654.16	20.948
654.36	26.351
654.55	31.437
654.75	36.835
654.95	42.512
655.14	48.055
655.34	53.400
655.54	60.085
655.73	63.088
655.93	68.200
656.13	71.492
656.32	75.084
656.52	79.793
656.72	82.449
656.91	84.466
657.11	87.273
657.31	88.678
657.50	91.735
657.70	94.540
657.90	94.165
658.09	94.788
658.29	94.372
658.49	94.654
658.68	95.210
658.88	95.352
659.07	95.578
659.27	96.118
659.47	96.332
659.66	98.778
659.86	100.922
660.06	103.570
660.25	100.903
660.45	103.474
660.64	101.819
660.84	99.585
661.04	98.318
661.23	96.161
661.43	95.594
661.63	95.972
661.82	96.852
662.02	96.776
662.21	97.859
662.41	98.124
662.61	95.989
662.80	95.483
663.00	94.968
663.19	95.498
663.39	95.701
663.59	97.092
663.78	96.733
663.98	96.543
664.17	97.520
664.37	98.991
664.57	97.712
664.76	99.326
664.96	96.889
665.15	95.592
665.35	93.707
665.55	93.012
665.74	92.734
665.94	92.752
666.13	94.376
666.33	95.250
666.53	96.761
666.72	96.495
666.92	98.234
667.11	98.351
667.31	97.875
667.50	97.563
667.70	96.727
667.90	97.671
668.09	98.751
668.29	99.186
668.48	98.991
668.68	99.671
668.87	100.692
669.07	98.922
669.26	98.784
669.46	100.843
669.66	101.207
669.85	102.391
670.05	101.951
670.24	102.478
670.44	100.432
670.63	100.187
670.83	98.733
671.02	96.317
671.22	94.773
671.42	95.794
671.61	95.188
671.81	95.287
672.00	96.247
672.20	95.239
672.39	95.792
672.59	93.988
672.78	94.624
672.98	93.782
673.17	93.969
673.37	94.261
673.56	95.030
673.76	95.692
673.95	97.869
674.15	98.601
674.34	98.007
674.54	97.868
674.73	95.397
674.93	95.619
675.13	95.116
675.32	95.875
675.52	97.106
675.71	97.655
675.91	97.383
676.10	97.274
676.30	94.842
676.49	94.516
676.69	94.145
676.88	95.733
677.08	97.143
677.27	97.011
677.47	98.425
677.66	99.343
677.86	100.846
678.05	102.333
678.24	102.091
678.44	101.752
678.63	101.744
678.83	99.869
679.02	98.046
679.22	97.040
679.41	96.829
679.61	97.801
679.80	98.559
680.00	98.905
680.19	99.359
680.39	97.313
680.58	95.749
680.78	94.093
680.97	94.696
681.17	93.836
681.36	94.820
681.56	96.299
681.75	98.406
681.94	99.262
682.14	100.004
682.33	99.280
682.53	99.453
682.72	98.240
682.92	98.366
683.11	98.107
683.31	96.436
683.50	94.359
683.69	94.948
683.89	95.123
684.08	96.095
684.28	97.548
684.47	98.506
684.67	99.971
684.86	99.499
685.06	98.279
685.25	96.819
685.44	94.828
685.64	94.327
685.83	94.109
686.03	94.963
686.22	95.656
686.42	97.484
686.61	98.290
686.80	98.941
687.00	99.618
687.19	100.096
687.39	99.685
687.58	98.926
687.77	98.878
687.97	97.317
688.16	96.945
688.36	98.313
688.55	98.373
688.74	98.405
688.94	99.157
689.13	98.085
689.33	96.920
689.52	96.512
689.71	97.913
689.91	97.926
690.10	97.443
690.30	96.632
690.49	96.500
690.68	97.758
690.88	97.916
691.07	97.966
691.27	99.030
691.46	98.931
691.65	101.183
691.85	100.467
692.04	101.316
692.23	100.640
692.43	100.559
692.62	99.041
692.82	97.831
693.01	96.448
693.20	95.704
693.40	95.457
693.59	96.188
693.78	97.587
693.98	96.686
694.17	95.887
694.36	95.305
694.56	95.839
694.75	95.248
694.94	94.571
695.14	95.565
695.33	94.666
695.53	96.617
695.72	96.180
695.91	97.313
696.11	97.062
696.30	98.430
696.49	99.711
696.69	97.647
696.88	98.023
697.07	98.538
697.27	96.741
697.46	97.211
697.65	95.660
697.85	95.799
698.04	96.519
698.23	98.813
698.43	98.550
698.62	99.239
698.81	98.449
699.01	97.257
699.20	96.723
699.39	97.569
699.58	96.873
699.78	97.495
699.97	96.904
700.16	96.129
700.36	97.003
700.55	96.408
700.74	96.538
700.94	96.245
701.13	97.833
701.32	96.121
701.52	97.726
701.71	95.452
701.90	95.239
702.09	95.538
702.29	95.390
702.48	94.854
702.67	95.902
702.87	97.088
703.06	95.671
703.25	95.870
703.44	95.839
703.64	95.125
703.83	94.262
704.02	94.774
704.22	95.619
704.41	96.525
704.60	97.712
704.79	98.147
704.99	98.300
705.18	96.678
705.37	95.552
705.56	94.410
705.76	95.470
705.95	93.746
706.14	95.370
706.33	95.190
706.53	96.007
706.72	95.226
706.91	94.516
707.11	94.552
707.30	93.055
707.49	93.869
707.68	93.312
707.88	93.630
708.07	93.209
708.26	93.389
708.45	94.057
708.64	94.348
708.84	93.508
709.03	93.000
709.22	94.242
709.41	93.746
709.61	94.448
709.80	93.142
709.99	92.556
710.18	90.938
710.38	86.138
710.57	83.794
710.76	81.391
710.95	76.204
711.14	70.979
711.34	67.550
711.53	61.446
711.72	55.263
711.91	49.725
712.11	44.266
712.30	39.148
712.49	33.675
712.68	29.521
712.87	25.762
713.07	23.227
713.26	19.691
713.45	16.352
713.64	13.375
713.83	10.474
714.03	8.290
714.22	6.541
714.41	5.434
714.60	4.024
714.79	3.494
714.99	3.027
715.18	2.235
715.37	1.983
715.56	1.880
715.75	1.799
715.94	1.694
716.14	1.375
716.33	1.471
716.52	1.241
716.71	1.284
716.90	1.255
717.10	1.231
717.29	1.073
717.48	0.942
717.67	1.083
717.86	1.010
718.05	0.652
718.24	0.963
718.44	0.718
718.63	0.716
718.82	1.073
719.01	0.638
719.20	0.841
719.39	0.611
719.59	0.546
719.78	0.904
719.97	0.737
720.16	0.679
720.35	0.598
720.54	0.705
720.73	0.504
720.93	0.865
721.12	0.544
721.31	0.713
721.50	0.495
721.69	0.711
721.88	0.512
722.07	0.630
722.27	0.604
722.46	0.261
722.65	0.555
722.84	0.559
723.03	0.665
723.22	0.558
723.41	0.571
723.60	0.592
723.79	0.508
723.99	0.651
724.18	0.512
724.37	0.498
724.56	0.468
724.75	0.506
724.94	0.424
725.13	0.700
725.32	0.290
725.51	0.483
725.71	0.207
725.90	0.638
726.09	0.458
726.28	0.427
726.47	0.382
726.66	0.489
726.85	0.530
727.04	0.511
727.23	0.610
727.42	0.379
727.61	0.243
727.81	0.599
728.00	0.511
728.19	0.297
728.38	0.359
728.57	0.435
728.76	0.461
728.95	0.298
729.14	0.379
729.33	0.270
729.52	0.402
729.71	0.165
729.90	0.387
730.09	0.314
730.28	0.356
730.48	0.483
730.67	0.449
730.86	0.527
731.05	0.246
731.24	0.517
731.43	0.151
731.62	0.302
731.81	0.451
732.00	0.416
732.19	0.245
732.38	0.187
732.57	0.355
732.76	0.434
732.95	0.411
733.14	0.319
733.33	0.212
733.52	0.411
733.71	0.555
733.90	0.199
734.09	0.129
734.28	0.190
734.47	0.441
734.66	0.358
734.85	0.151
735.04	0.346
735.23	0.378
735.42	0.439
735.61	0.203
735.81	0.248
736.00	0.331
736.19	0.034
736.38	0.379
736.57	0.276
736.76	0.236
736.95	0.044
737.14	0.267
737.33	0.459
737.52	0.299
737.71	0.057
737.90	0.196
738.09	0.138
738.28	0.255
738.47	0.006
738.66	0.314
738.85	0.017
739.04	0.216
739.22	-0.023
739.41	0.433
739.60	0.173
739.79	0.192
739.98	0.229
740.17	0.397
740.36	0.264
740.55	0.349
740.74	0.247
740.93	0.274
741.12	0.168
741.31	0.062
741.50	0.314
741.69	0.143
741.88	0.227
742.07	0.114
742.26	0.280
742.45	0.156
742.64	0.421
742.83	0.366
743.02	0.094
743.21	0.184
743.40	0.227
743.59	0.337
743.78	0.448
743.97	0.026
744.16	0.159
744.34	0.502
744.53	0.489
744.72	0.573
744.91	0.434
745.10	0.162
745.29	0.501
745.48	0.205
745.67	0.184
745.86	0.288
746.05	0.235
746.24	0.379
746.43	0.051
746.62	0.450
746.81	0.161
747.00	0.039
747.18	0.299
747.37	0.192
747.56	0.352
747.75	0.420
747.94	-0.119
748.13	0.266
748.32	0.274
748.51	0.007
748.70	0.188
748.89	-0.070
749.08	0.449
749.26	0.192
749.45	0.110
749.64	0.333
749.83	-0.383
750.02	0.259
750.21	0.094
750.40	0.336
750.59	0.296
750.78	0.267
750.96	0.587
751.15	0.555
751.34	0.015
751.53	0.264
751.72	0.030
751.91	0.185
752.10	0.022
752.29	0.424
752.47	-0.060
752.66	0.335
752.85	0.085
753.04	-0.016
753.23	0.233
753.42	-0.016
753.61	0.263
753.80	0.473
753.98	0.335
754.17	0.378
754.36	0.328
754.55	-0.033
754.74	0.095
754.93	0.148
755.12	0.271
755.30	0.384
755.49	-0.136
755.68	0.334
755.87	-0.107
756.06	0.510
756.25	0.027
756.43	0.299
756.62	0.208
756.81	0.216
757.00	0.511
757.19	0.292
757.38	0.081
757.56	0.317
757.75	0.385
757.94	0.194
758.13	0.184
758.32	0.730
758.51	0.346
758.69	0.376
758.88	0.268
759.07	0.353
759.26	0.345
759.45	0.238
759.63	0.641
759.82	0.274
760.01	0.810
760.20	-0.098
760.39	0.383
760.57	0.343
760.76	0.245
760.95	0.915
761.14	0.371
761.33	0.068
761.51	0.544
761.70	0.533
761.89	0.332
762.08	0.486
762.27	0.805
762.45	0.702
762.64	0.559
762.83	0.528
763.02	0.198
763.21	-0.088
763.39	0.229
763.58	-0.038
763.77	0.320
763.96	0.451
764.14	0.293
764.33	-0.247
764.52	0.079
764.71	0.828
764.89	0.013
765.08	0.534
765.27	-0.240
765.46	0.067
765.65	0.596
765.83	-0.041
766.02	0.014
766.21	0.134
766.40	-0.040
766.58	0.466
766.77	0.570
766.96	0.825
767.15	0.417
767.33	0.748
767.52	0.664
767.71	0.640
767.90	0.329
768.08	0.696
768.27	0.321
768.46	-0.048
768.64	0.390
768.83	-0.198
769.02	0.474
769.21	-0.067
769.39	0.017
769.58	0.017
769.77	0.617
769.96	0.495
770.14	0.444
770.33	0.742
770.52	0.575
770.70	0.495
770.89	-0.343
771.08	0.341
771.27	1.273
771.45	0.325
771.64	-0.069
771.83	0.323
772.01	-0.157
772.20	1.092
772.39	0.595
772.57	-0.091
772.76	0.238
772.95	0.383
773.14	0.612
773.32	0.425
773.51	0.341
773.70	0.491
773.88	0.754
774.07	0.447
774.26	-0.323
774.44	0.057
774.63	0.727
774.82	-0.098
775.00	0.584
775.19	0.989
775.38	0.602
775.56	0.114
775.75	0.614
775.94	-1.005
776.12	0.294
776.31	0.281
776.50	1.138
776.68	0.743
776.87	0.945
777.06	-0.995
777.24	0.366
777.43	0.637
777.62	0.041
777.80	-0.123
777.99	1.015
778.18	1.314
778.36	0.188
778.55	-0.186
778.74	0.578
778.92	-0.311
779.11	1.078
779.29	0.286
779.48	1.884
779.67	-0.410
779.85	0.242
780.04	0.245
780.23	1.169
780.41	0.386
780.60	-0.692
780.79	-0.279
780.97	0.661
781.16	0.177
781.34	-0.735
781.53	0.040
781.72	0.548
781.90	-0.312
782.09	1.165
782.28	-0.389
782.46	0.353
782.65	1.097
782.83	0.262
783.02	-0.642
783.21	-0.178
783.39	0.753
783.58	0.251
783.76	0.802
783.95	0.249
784.14	0.802
784.32	-0.018
784.51	0.781
784.69	0.377
784.88	0.236
785.06	0.253
785.25	-0.142
785.44	0.230
785.62	0.457
785.81	-0.108
785.99	0.036
786.18	0.203
786.37	-0.315
786.55	1.127
786.74	0.171
786.92	0.336
787.11	0.930
787.29	0.315
787.48	-0.418
787.67	0.828
787.85	0.877
788.04	0.677
788.22	0.154
788.41	0.729
788.59	1.016
788.78	0.131
788.96	-0.347
789.15	-0.116
789.34	-0.344
789.52	-0.790
789.71	0.379
789.89	0.852
790.08	0.367
790.26	0.217
790.45	-0.318
790.63	-0.482
790.82	-0.210
791.00	0.227
791.19	0.655
791.38	0.127
791.56	0.552
791.75	0.388
791.93	0.577
792.12	0.450
792.30	-0.209
792.49	-0.309
792.67	0.069
792.86	0.134
793.04	0.915
793.23	-0.415
793.41	0.121
793.60	0.069
793.78	0.880
793.97	0.243
794.15	1.060
794.34	0.892
794.52	0.589
794.71	0.000
794.89	0.183
795.08	0.130
795.26	0.276
795.45	0.724
795.63	-0.062
795.82	0.239
796.00	0.193
796.19	0.133
796.37	-0.090
796.56	0.742
796.74	0.798
796.93	0.491
797.11	0.566
797.30	0.475
797.48	-0.058
797.67	0.561
797.85	0.572
798.04	1.034
798.22	-0.375
798.41	0.153
798.59	0.046
798.77	0.046
798.96	0.185
799.14	-0.463
799.33	0.151
799.51	0.030
799.70	0.254
799.88	-0.121
800.07	-0.418
800.25	0.015
800.44	-0.205
800.62	-0.029
800.80	0.717
800.99	0.296
801.17	0.059
801.36	0.608
801.54	0.059
801.73	-0.029
801.91	0.160
802.10	-0.362
802.28	0.277
802.46	0.403
802.65	0.029
802.83	0.607
803.02	0.629
803.20	0.854
803.39	-0.174
803.57	-0.060
803.75	-0.254
803.94	-0.046
804.12	0.607
804.31	-0.062
804.49	0.545
804.67	0.869
804.86	0.540
805.04	-0.391
805.23	0.535
805.41	0.352
805.59	0.211
805.78	-0.080
805.96	0.140
806.15	0.231
806.33	-0.170
806.51	-0.260
806.70	0.030
806.88	0.518
807.07	0.603
807.25	0.885
807.43	-0.142
807.62	0.112
807.80	0.016
807.99	0.219
808.17	0.418
808.35	-0.094
808.54	-0.167
808.72	0.272
808.90	-0.256
809.09	0.300
809.27	0.498
809.46	-0.124
809.64	-0.257
809.82	-0.294
810.01	-0.031
810.19	0.460
810.37	0.075
810.56	-0.268
810.74	0.375
810.92	0.225
811.11	-0.210
811.29	-0.030
811.48	0.109
811.66	0.472
811.84	0.451
812.03	0.361
812.21	1.000
812.39	0.388
812.58	0.493
812.76	0.957
812.94	0.032
813.13	0.080
813.31	0.081
813.49	0.394
813.68	0.670
813.86	0.676
814.04	-0.194
814.23	0.798
814.41	-0.532
814.59	0.059
814.78	0.177
814.96	0.558
815.14	0.459
815.33	-0.349
815.51	-0.632
815.69	0.996
815.87	-0.080
816.06	0.000
816.24	0.000
816.42	1.171
816.61	0.448
816.79	0.922
816.97	0.036
817.16	0.000
817.34	1.395
817.52	0.323
817.70	0.338
817.89	0.260
818.07	-0.249
818.25	1.083
818.44	0.181
818.62	0.054
818.80	-0.779
818.98	0.533
819.17	-0.272
819.35	0.316
819.53	0.479
819.72	0.434
819.90	0.942
820.08	0.677
820.26	0.174
820.45	0.358
820.63	-0.398
820.81	0.457
820.99	0.601
821.18	-0.197
821.36	0.743
821.54	0.481
821.73	0.407
821.91	0.340
822.09	-0.100
822.27	-0.160
822.46	0.945
822.64	0.972
822.82	0.536
823.00	-0.042
823.19	0.555
823.37	-0.194
823.55	0.495
823.73	-0.602
823.91	0.363
824.10	0.483
824.28	1.195
824.46	0.195
824.64	1.143
824.83	0.761
825.01	0.525
825.19	0.401
825.37	-0.120
825.56	1.037
825.74	-0.069
825.92	0.361
826.10	-0.982
826.28	0.742
826.47	1.225
826.65	1.040
826.83	-0.994
827.01	1.330
827.19	0.130
827.38	0.443
827.56	1.027
827.74	0.230
827.92	0.489
828.10	0.476
828.29	-0.172
828.47	1.235
828.65	-0.349
828.83	1.491
829.01	-0.222
829.20	0.433
829.38	0.233
829.56	0.491
829.74	0.696
829.92	2.353
830.10	0.156
830.29	-0.289
830.47	1.506
830.65	0.696
830.83	0.052
831.01	0.492
831.20	1.901
831.38	0.383
831.56	-0.176
831.74	0.309
831.92	-0.129
832.10	0.157
832.29	1.108
832.47	1.022
832.65	0.946
832.83	-1.984
833.01	-0.167
833.19	1.064
833.37	0.540
833.56	0.504
833.74	0.250
833.92	1.917
834.10	0.142
834.28	1.078
834.46	0.278
834.64	0.028
834.83	1.294
835.01	-0.329
835.19	0.249
835.37	-0.582
835.55	-1.100
835.73	0.929
835.91	-1.550
836.09	0.219
836.28	1.015
836.46	1.484
836.64	-1.422
836.82	0.811
837.00	0.056
837.18	0.489
837.36	0.295
837.54	0.977
837.72	0.210
837.91	0.239
838.09	-0.777
838.27	0.502
838.45	0.602
838.63	1.233
838.81	-1.151
838.99	-0.586
839.17	1.011
839.35	0.592
839.53	1.016
839.72	0.932
839.90	1.662
840.08	0.325
840.26	0.847
840.44	-0.235
840.62	0.263
840.80	1.294
840.98	0.342
841.16	0.933
841.34	0.753
841.52	-0.945
841.70	1.190
841.89	-0.557
842.07	-0.480
842.25	0.853
842.43	0.832
842.61	-0.066
842.79	1.138
842.97	-0.510
843.15	1.806
843.33	0.206
843.51	-0.344
843.69	1.042
843.87	0.512
844.05	2.059
844.23	1.645
844.41	2.051
844.59	1.311
844.77	0.226
844.95	0.451
845.13	0.806
845.31	0.968
845.50	-0.378
845.68	-0.584
845.86	-0.582
846.04	-0.994
846.22	-0.947
846.40	1.732
846.58	1.174
846.76	0.784
846.94	2.330
847.12	0.770
847.30	0.298
847.48	2.376
847.66	0.115
847.84	-0.795
848.02	0.557
848.20	0.657
848.38	2.033
848.56	-0.668
848.74	0.315
848.92	-0.756
849.10	1.099
849.28	0.326
849.46	0.696
849.64	0.567
849.82	1.756
850.00	0.916
850.18	-0.994
850.36	0.203
850.54	-1.158
850.72	-0.160
850.90	3.539
851.08	-0.041
851.26	1.497
851.44	1.383
851.62	-0.285
851.80	-0.086
851.98	0.209
852.16	1.410
852.34	0.130
852.52	0.575
852.70	1.119
852.87	0.411
853.05	-0.286
853.23	1.320
853.41	0.494
853.59	0.560
853.77	-0.540
853.95	1.043
854.13	-0.852
854.31	0.519
854.49	0.683
854.67	-1.132
854.85	1.215
855.03	0.416
855.21	-0.115
855.39	-0.463
855.57	1.723
855.75	1.375
855.93	1.199
856.11	-3.506
856.28	0.079
856.46	1.196
856.64	1.749
856.82	1.599
857.00	-0.496
857.18	0.080
857.36	-0.756
857.54	0.080
857.72	0.788
857.90	2.147
858.08	-0.273
858.26	-1.471
858.44	1.801
858.61	0.369
858.79	-1.319
858.97	-0.346
859.15	1.759
859.33	-0.882
859.51	0.343
859.69	0.713
859.87	1.962
860.05	0.367
860.23	0.952
860.40	2.771
860.58	1.901
860.76	1.891
860.94	0.187
861.12	0.870
861.30	0.534
861.48	1.352
861.66	1.096
861.84	2.031
862.01	1.981
862.19	2.658
862.37	1.203
862.55	1.346
862.73	2.254
862.91	1.172
863.09	2.804
863.27	3.004
863.44	2.103
863.62	3.228
863.80	1.870
863.98	1.878
864.16	3.159
864.34	1.411
864.52	2.009
864.69	2.281
864.87	2.145
865.05	1.964
865.23	2.123
865.41	1.784
865.59	3.017
865.76	0.368
865.94	2.586
866.12	0.898
866.30	2.876
866.48	0.267
866.66	2.842
866.83	1.709
867.01	1.498
867.19	-0.184
867.37	1.509
867.55	2.973
867.73	0.104
867.90	1.106
868.08	1.335
868.26	1.502
868.44	0.567
868.62	1.890
868.79	1.184
868.97	1.058
869.15	1.527
869.33	2.263
869.51	1.662
869.69	1.895
869.86	0.496
870.04	1.408
870.22	0.446
870.40	0.531
870.57	2.677
870.75	2.209
870.93	1.453
871.11	1.242
871.29	2.237
871.46	2.329
871.64	3.376
871.82	2.473
872.00	4.245
872.18	4.498
872.35	2.784
872.53	5.318
872.71	3.886
872.89	4.478
873.06	6.218
873.24	4.652
873.42	5.872
873.60	7.631
873.77	7.452
873.95	8.102
874.13	7.575
874.31	9.576
874.49	9.750
874.66	10.821
874.84	9.796
875.02	12.598
875.20	14.395
875.37	13.391
875.55	15.936
875.73	15.228
875.91	17.483
876.08	17.149
876.26	19.200
876.44	22.741
876.61	19.307
876.79	19.172
876.97	22.168
877.15	20.485
877.32	20.885
877.50	19.318
877.68	18.831
877.86	18.854
878.03	17.775
878.21	19.527
878.39	16.881
878.56	17.709
878.74	17.703
878.92	17.157
879.10	16.593
879.27	14.689
879.45	14.929
879.63	17.498
879.80	16.634
879.98	17.563
880.16	18.834
880.34	18.336
880.51	19.844
880.69	20.309
880.87	22.788
881.04	22.852
881.22	24.662
881.40	24.957
881.57	25.852
881.75	30.973
881.93	34.554
882.10	34.003
882.28	36.852
882.46	40.128
882.63	44.782
882.81	47.743
882.99	51.812
883.16	53.698
883.34	55.957
883.52	57.053
883.69	59.019
883.87	59.263
884.05	61.553
884.22	62.402
884.40	60.871
884.58	60.268
884.75	58.721
884.93	60.156
885.11	57.950
885.28	53.450
885.46	53.004
885.64	51.013
885.81	47.078
885.99	46.406
886.17	42.334
886.34	40.014
886.52	39.329
886.70	36.640
886.87	33.073
887.05	31.736
887.22	28.950
887.40	27.349
887.58	25.060
887.75	25.025
887.93	23.331
888.11	20.905
888.28	20.138
888.46	20.807
888.63	19.855
888.81	18.341
888.99	17.494
889.16	18.948
889.34	18.839
889.51	16.964
889.69	18.268
889.87	17.113
890.04	16.550
890.22	18.649
890.39	20.483
890.57	21.053
890.75	21.908
890.92	23.185
891.10	23.460
891.27	24.335
891.45	25.718
891.63	26.189
891.80	28.020
891.98	28.191
892.15	28.797
892.33	30.486
892.51	30.834
892.68	33.223
892.86	34.783
893.03	33.635
893.21	37.359
893.38	38.743
893.56	37.132
893.74	39.775
893.91	40.172
894.09	39.974
894.26	38.405
894.44	39.641
894.61	38.939
894.79	36.782
894.96	38.065
895.14	35.726
895.32	36.607
895.49	33.848
895.67	34.336
895.84	32.799
896.02	28.805
896.19	25.764
896.37	25.183
896.54	23.878
896.72	22.869
896.89	21.518
897.07	19.295
897.25	17.811
897.42	17.130
897.60	16.372
897.77	14.350
897.95	14.057
898.12	13.257
898.30	11.810
898.47	12.928
898.65	11.722
898.82	11.341
899.00	10.853
899.17	11.544
899.35	10.357
899.52	9.922
899.70	10.205
899.87	7.654
900.05	8.716
900.22	9.249
900.40	7.080
900.57	7.450
900.75	9.763
900.92	8.931
901.10	7.476
901.27	9.213
901.45	6.679
901.62	8.636
901.80	7.116
901.97	8.034
902.15	7.444
902.32	6.728
902.50	9.874
902.67	7.645
902.85	8.692
903.02	8.462
903.20	8.665
903.37	10.318
903.54	9.176
903.72	8.170
903.89	10.103
904.07	11.041
904.24	11.774
904.42	12.451
904.59	11.903
904.77	12.244
904.94	13.150
905.12	11.166
905.29	13.391
905.47	13.927
905.64	15.152
905.81	15.385
905.99	18.598
906.16	16.900
906.34	20.714
906.51	20.535
906.69	23.040
906.86	23.024
907.03	25.131
907.21	27.291
907.38	26.807
907.56	25.249
907.73	29.230
907.91	33.263
908.08	29.609
908.25	29.427
908.43	31.537
908.60	30.293
908.78	32.926
908.95	33.529
909.13	33.034
909.30	36.551
909.47	32.113
909.65	32.967
909.82	30.467
910.00	31.338
910.17	32.167
910.34	30.077
910.52	30.495
910.69	27.967
910.87	27.407
911.04	27.576
911.21	25.903
911.39	24.310
911.56	22.937
911.73	21.604
911.91	24.378
912.08	20.108
912.26	19.683
912.43	19.703
912.60	19.039
912.78	18.722
912.95	16.951
913.13	18.550
913.30	16.914
913.47	17.479
913.65	15.644
913.82	16.848
913.99	13.751
914.17	15.524
914.34	14.972
914.51	13.925
914.69	14.445
914.86	11.718
915.03	13.436
915.21	14.406
915.38	12.282
915.56	17.796
915.73	16.232
915.90	17.984
916.08	16.782
916.25	14.778
916.42	14.293
916.60	14.481
916.77	16.727
916.94	17.125
917.12	16.567
917.29	17.990
917.46	20.723
917.64	18.816
917.81	18.710
917.98	21.344
918.16	19.656
918.33	22.843
918.50	24.867
918.67	23.283
918.85	25.928
919.02	25.920
919.19	30.033
919.37	31.310
919.54	32.617
919.71	28.943
919.89	34.218
920.06	35.234
920.23	36.279
920.41	37.274
920.58	42.258
920.75	43.209
920.92	42.568
921.10	49.885
921.27	49.541
921.44	54.164
921.62	58.574
921.79	59.930
921.96	62.712
922.13	66.667
922.31	63.842
922.48	69.418
922.65	67.061
922.82	70.550
923.00	67.900
923.17	72.516
923.34	75.112
923.52	73.790
923.69	78.476
923.86	72.733
924.03	80.132
924.21	75.160
924.38	74.147
924.55	72.416
924.72	70.145
924.90	75.743
925.07	78.457
925.24	70.156
925.41	78.261
925.59	71.075
925.76	65.262
925.93	74.118
926.10	73.888
926.28	66.905
926.45	66.324
926.62	60.666
926.79	65.007
926.96	59.059
927.14	59.324
927.31	57.271
927.48	53.011
927.65	56.897
927.83	54.899
928.00	51.916
928.17	54.201
928.34	50.656
928.51	56.554
928.69	57.484
928.86	58.148
929.03	60.116
929.20	57.228
929.37	59.041
929.55	58.576
929.72	58.160
929.89	60.597
930.06	62.200
930.23	59.306
930.41	57.097
930.58	58.618
930.75	65.225
930.92	64.179
931.09	68.082
931.27	63.576
931.44	67.759
931.61	67.515
931.78	67.869
931.95	69.659
932.12	70.510
932.30	73.753
932.47	73.542
932.64	76.993
932.81	70.578
932.98	77.659
933.16	74.194
933.33	78.369
933.50	80.383
933.67	84.875
933.84	75.859
934.01	78.100
934.18	77.615
934.36	83.175
934.53	73.965
934.70	82.651
934.87	76.588
935.04	79.659
935.21	76.254
935.38	70.495
935.56	78.973
935.73	75.920
935.90	76.304
936.07	72.959
936.24	76.858
936.41	71.195
936.58	75.081
936.76	72.057
936.93	70.636
937.10	76.503
937.27	69.095
937.44	72.264
937.61	74.047
937.78	64.478
937.95	63.509
938.13	69.967
938.30	67.912
938.47	56.033
938.64	63.596
938.81	59.936
938.98	59.556
939.15	55.667
939.32	63.276
939.49	60.538
939.66	58.134
939.84	54.364
940.01	57.788
940.18	58.220
940.35	48.724
940.52	60.526
940.69	58.478
940.86	61.665
941.03	56.734
941.20	47.907
941.37	56.805
941.54	60.787
941.71	56.092
941.89	60.859
942.06	54.925
942.23	55.748
942.40	62.299
942.57	60.799
942.74	61.769
942.91	60.229
943.08	63.325
943.25	67.465
943.42	71.348
943.59	63.958
943.76	71.120
943.93	75.580
944.10	75.926
944.27	77.212
944.44	74.419
944.61	77.579
944.79	76.338
944.96	88.559
945.13	78.227
945.30	81.030
945.47	83.973
945.64	81.423
945.81	83.518
945.98	82.483
946.15	87.668
946.32	90.960
946.49	92.282
946.66	91.705
946.83	83.242
947.00	93.620
947.17	80.945
947.34	73.362
947.51	83.308
947.68	83.123
947.85	78.979
948.02	86.964
948.19	76.630
948.36	81.387
948.53	83.737
948.70	84.946
948.87	80.952
949.04	72.700
949.21	68.647
949.38	76.020
949.55	63.398
949.72	72.817
949.89	59.687
950.06	75.485
950.23	60.943
950.40	53.400
950.57	67.027
950.74	54.770
950.91	57.904
951.08	57.666
951.25	55.323
951.42	55.766
951.59	46.835
951.76	48.687
951.93	51.439
952.10	55.435
952.27	52.193
952.44	50.408
952.61	56.344
952.77	48.577
952.94	53.862
953.11	51.238
953.28	51.132
953.45	55.285
953.62	38.113
953.79	48.704
953.96	41.992
954.13	53.831
954.30	52.419
954.47	49.381
954.64	52.885
954.81	50.302
954.98	42.357
955.15	54.400
955.32	52.900
955.49	54.012
955.65	44.600
955.82	56.619
955.99	49.911
956.16	52.465
956.33	51.292
956.50	48.444
956.67	58.753
956.84	42.697
957.01	59.267
957.18	60.636
957.35	44.153
957.52	56.627
957.68	61.607
957.85	69.574
958.02	56.892
958.19	57.073
958.36	73.223
958.53	69.531
958.70	63.597
958.87	64.877
959.04	74.872
959.21	57.930
959.37	79.740
959.54	68.966
959.71	63.744
959.88	61.605
960.05	66.508
960.22	68.932
960.39	61.353
960.56	73.465
960.72	70.062
960.89	66.879
961.06	61.042
961.23	65.760
961.40	66.667
961.57	62.037
961.74	65.613
961.90	64.242
962.07	66.245
962.24	59.696
962.41	60.486
962.58	61.325
962.75	56.485
962.92	66.013
963.08	58.652
963.25	69.414
963.42	54.436
963.59	48.729
963.76	55.982
963.93	44.954
964.10	44.186
964.26	44.979
964.43	46.651
964.60	48.706
964.77	51.389
964.94	44.575
965.10	47.727
965.27	33.867
965.44	39.180
965.61	52.446
965.78	35.682
965.95	38.186
966.11	40.323
966.28	30.194
966.45	35.912
966.62	31.490
966.79	34.127
966.95	31.900
967.12	22.523
967.29	35.374
967.46	38.235
967.63	28.936
967.79	33.406
967.96	30.310
968.13	29.825
968.30	29.921
968.47	24.167
968.63	30.490
968.80	26.453
968.97	31.663
969.14	40.396
969.31	30.983
969.47	39.504
969.64	28.657
969.81	35.941
969.98	24.755
970.14	30.586
970.31	38.043
970.48	28.571
970.65	32.941
970.81	22.656
970.98	21.413
971.15	22.432
971.32	30.000
971.48	27.692
971.65	40.162
971.82	31.603
971.99	39.153
972.15	32.779
972.32	31.690
972.49	33.902
972.66	28.795
972.82	28.668
972.99	33.176
973.16	35.684
973.33	46.682
973.49	29.219
973.66	31.746
973.83	44.388
974.00	43.468
974.16	44.773
974.33	43.855
974.50	39.372
974.67	38.519
974.83	48.426
975.00	35.167
975.17	53.563
975.33	52.570
975.50	52.688
975.67	54.378
975.84	48.504
976.00	62.824
976.17	54.824
976.34	55.528
976.50	63.536
976.67	54.358
976.84	48.980
977.00	52.482
977.17	72.958
977.34	51.196
977.50	66.756
977.67	65.525
977.84	73.066
978.01	58.377
978.17	76.071
978.34	73.449
978.51	66.102
978.67	83.486
978.84	73.563
979.01	70.047
979.17	72.421
979.34	72.539
979.51	74.750
979.67	78.641
979.84	82.660
980.01	67.426
980.17	77.874
980.34	73.177
980.51	87.298
980.67	74.805
980.84	74.639
981.01	72.475
981.17	67.647
981.34	64.211
981.50	61.779
981.67	71.216
981.84	72.861
982.00	58.763
982.17	53.181
982.34	75.467
982.50	68.699
982.67	81.912
982.84	62.850
983.00	73.890
983.17	60.092
983.33	66.000
983.50	63.453
983.67	65.198
983.83	64.588
984.00	66.827
984.17	60.515
984.33	72.000
984.50	51.586
984.66	73.196
984.83	58.120
985.00	58.889
985.16	70.886
985.33	65.227
985.49	58.174
985.66	65.376
985.83	70.492
985.99	63.354
986.16	65.753
986.32	66.064
986.49	74.208
986.66	63.098
986.82	67.904
986.99	70.396
987.15	70.093
987.32	70.755
987.49	76.244
987.65	63.636
987.82	61.082
987.98	81.455
988.15	79.389
988.31	70.922
988.48	85.545
988.65	86.508
988.81	78.971
988.98	66.864
989.14	88.863
989.31	78.656
989.47	77.644
989.64	78.153
989.80	83.568
989.97	84.416
990.14	84.043
990.30	87.500
990.47	97.087
990.63	84.687
990.80	92.371
990.96	83.410
991.13	85.268
991.29	93.349
991.46	103.563
991.62	94.651
991.79	88.100
991.95	94.582
992.12	95.465
992.29	79.878
992.45	100.229
992.62	80.269
992.78	88.260
992.95	100.478
993.11	89.038
993.28	98.289
993.44	90.591
993.61	85.270
993.77	89.791
993.94	75.515
994.10	80.380
994.27	69.438
994.43	82.700
994.60	77.250
994.76	69.284
994.93	71.526
995.09	73.046
995.26	78.155
995.42	72.263
995.59	68.602
995.75	69.907
995.92	63.294
996.08	58.824
996.25	61.235
996.41	49.755
996.58	59.817
996.74	48.620
996.91	52.742
997.07	64.390
997.23	68.382
997.40	52.759
997.56	54.439
997.73	59.500
997.89	45.638
998.06	45.374
998.22	47.174
998.39	45.798
998.55	48.268
998.72	48.131
998.88	50.000
999.05	51.991
999.21	55.609
999.37	58.777
999.54	46.212
999.70	44.420
999.87	57.286
1000.03	56.393
1000.20	46.635
1000.36	46.283
1000.52	46.653
1000.69	55.960
1000.85	39.525
1001.02	39.041
1001.18	45.315
1001.35	44.586
1001.51	54.120
1001.67	46.102
1001.84	49.156
1002.00	46.849
1002.17	50.688
1002.33	63.232
1002.50	46.501
1002.66	52.607
1002.82	58.794
1002.99	61.333
1003.15	47.619
1003.32	61.153
1003.48	53.828
1003.64	43.511
1003.81	58.146
1003.97	53.425
1004.14	59.953
1004.30	52.580
1004.46	71.018
1004.63	56.277
1004.79	55.000
1004.95	51.414
1005.12	71.429
1005.28	62.827
1005.45	64.055
1005.61	75.550
1005.77	68.719
1005.94	61.211
1006.10	75.315
1006.26	64.988
1006.43	68.009
1006.59	67.416
1006.76	72.559
1006.92	68.000
1007.08	74.163
1007.25	59.603
1007.41	59.472
1007.57	55.637
1007.74	56.423
1007.90	69.845
1008.06	81.250
1008.23	71.538
1008.39	63.598
1008.55	66.820
1008.72	56.608
1008.88	56.667
1009.04	57.883
1009.21	63.484
1009.37	63.421
1009.53	54.436
1009.70	64.516
1009.86	59.259
1010.02	56.948
1010.19	54.571
1010.35	57.522
1010.51	53.461
1010.68	47.980
1010.84	59.318
1011.00	52.051
1011.17	52.355
1011.33	50.611
1011.49	41.808
1011.66	57.949
1011.82	38.875
1011.98	47.734
1012.14	33.699
1012.31	42.183
1012.47	48.593
1012.63	39.080
1012.80	47.884
1012.96	46.257
1013.12	44.167
1013.29	31.856
1013.45	37.076
1013.61	38.243
1013.77	45.736
1013.94	38.642
1014.10	31.515
1014.26	38.614
1014.43	34.615
1014.59	22.554
1014.75	23.834
1014.91	29.977
1015.08	24.213
1015.24	29.942
1015.40	27.250
1015.56	31.842
1015.73	29.877
1015.89	27.957
1016.05	27.488
1016.21	28.792
1016.38	18.767
1016.54	14.620
1016.70	27.941
1016.86	22.126
1017.03	24.251
1017.19	17.207
1017.35	29.245
1017.51	33.425
1017.68	32.727
1017.84	16.235
1018.00	33.943
1018.16	26.667
1018.33	19.382
1018.49	20.952
1018.65	6.812
1018.81	18.349
1018.97	26.912
1019.14	20.708
1019.30	29.462
1019.46	19.588
1019.62	-1.172
1019.79	19.122
1019.95	36.504
1020.11	17.134
1020.27	25.902
1020.43	27.018
1020.60	24.242
1020.76	53.184
1020.92	17.647
1021.08	23.684
1021.24	21.118
1021.41	34.667
1021.57	37.356
1021.73	38.361
1021.89	34.539
1022.05	16.376
1022.21	28.889
1022.38	30.857
1022.54	17.479
1022.70	16.000
1022.86	33.141
1023.02	44.928
1023.19	25.987
1023.35	27.974
1023.51	14.103
1023.67	36.047
1023.83	17.939
1023.99	32.746
1024.16	23.413
1024.32	37.540
1024.48	29.433
1024.64	29.470
1024.80	23.050
1024.96	28.086
1025.12	27.273
1025.29	27.562
1025.45	29.286
1025.61	17.742
1025.77	25.993
1025.93	37.267
1026.09	26.641
1026.26	37.500
1026.42	45.492
1026.58	44.291
1026.74	31.373
1026.90	33.837
1027.06	36.634
1027.22	36.577
1027.38	33.688
1027.55	41.748
1027.71	29.942
1027.87	45.085
1028.03	31.474
1028.19	28.814
1028.35	30.258
1028.51	34.740
1028.67	41.445
1028.83	21.212
1029.00	39.655
1029.16	48.125
1029.32	39.098
1029.48	38.281
1029.64	44.262
1029.80	45.528
1029.96	48.148
1030.12	50.549
1030.28	35.088
1030.44	45.635
1030.61	35.443
1030.77	43.852
1030.93	57.143
1031.09	22.353
1031.25	24.873
1031.41	31.727
1031.57	35.865
1031.73	31.250
1031.89	49.117
1032.05	40.075
1032.21	41.224
1032.37	45.324
1032.53	51.311
1032.69	45.923
1032.86	28.846
1033.02	38.538
1033.18	39.231
1033.34	34.050
1033.50	22.280
1033.66	37.358
1033.82	50.549
1033.98	21.552
1034.14	46.083
1034.30	39.695
1034.46	49.624
1034.62	47.843
1034.78	40.809
1034.94	22.744
1035.10	51.456
1035.26	40.550
1035.42	39.735
1035.58	49.097
1035.74	44.398
1035.90	47.805
1036.06	25.094
1036.22	25.954
1036.38	48.458
1036.54	36.475
1036.70	45.833
1036.86	64.433
1037.02	43.223
1037.18	52.857
1037.34	30.159
1037.50	36.893
1037.66	33.684
1037.82	52.431
1037.98	40.143
1038.14	29.834
1038.30	35.000
1038.46	51.439
1038.62	38.028
1038.78	51.923
1038.94	40.394
1039.10	33.493
1039.26	53.448
1039.42	48.624
1039.58	43.787
1039.74	26.360
1039.90	34.000
1040.06	50.732
>>>>>End Processed Spectral Data<<<<<
