SpectraSuite Data File
++++++++++++++++++++++++++++++++++++
Date: Wed Jan 25 18:07:24 EET 2017
User: TheoProf
Dark Spectrum Present: Yes
Reference Spectrum Present: Yes
Number of Sampled Component Spectra: 1
Spectrometers: USB4C02475
Integration Time (usec): 64136 (USB4C02475)
Spectra Averaged: 1 (USB4C02475)
Boxcar Smoothing: 0 (USB4C02475)
Correct for Electrical Dark: No (USB4C02475)
Strobe/Lamp Enabled: No (USB4C02475)
Correct for Detector Non-linearity: No (USB4C02475)
Correct for Stray Light: No (USB4C02475)
Number of Pixels in Processed Spectrum: 3648
>>>>>Begin Processed Spectral Data<<<<<
344.91	133.333
345.13	133.333
345.35	133.333
345.57	92.857
345.79	275.000
346.00	126.316
346.22	275.000
346.44	-6.897
346.66	-100.000
346.87	86.207
347.09	-180.000
347.31	17.391
347.53	-49.020
347.74	23.684
347.96	132.143
348.18	-0.000
348.40	0.000
348.61	176.923
348.83	12.121
349.05	63.934
349.27	83.333
349.48	88.235
349.70	-70.588
349.92	45.161
350.14	90.164
350.35	111.111
350.57	75.000
350.79	52.941
351.01	1.538
351.22	100.000
351.44	70.513
351.66	-340.000
351.87	238.889
352.09	387.500
352.31	68.571
352.53	28.333
352.74	96.552
352.96	78.000
353.18	-21.951
353.40	100.000
353.61	38.095
353.83	345.455
354.05	-140.000
354.26	27.273
354.48	123.810
354.70	184.211
354.92	50.000
355.13	62.069
355.35	94.340
355.57	21.569
355.78	119.355
356.00	89.583
356.22	104.110
356.44	32.813
356.65	40.385
356.87	107.692
357.09	82.000
357.30	1.020
357.52	-83.333
357.74	36.364
357.95	62.500
358.17	125.000
358.39	86.047
358.60	162.500
358.82	84.615
359.04	960.000
359.26	0.000
359.47	-25.000
359.69	30.693
359.91	120.000
360.12	-180.000
360.34	13.514
360.56	16.667
360.77	35.897
360.99	72.414
361.21	53.571
361.42	-21.277
361.64	162.500
361.86	-45.833
362.07	31.707
362.29	52.273
362.51	54.762
362.72	138.462
362.94	73.846
363.16	25.000
363.37	37.500
363.59	124.000
363.81	-12.500
364.02	120.408
364.24	-76.923
364.46	90.385
364.67	-650.000
364.89	-27.273
365.11	11.111
365.32	200.000
365.54	-157.895
365.76	6.897
365.97	51.515
366.19	163.636
366.41	-42.857
366.62	162.857
366.84	-0.000
367.05	30.909
367.27	-3.030
367.49	96.774
367.70	85.714
367.92	10.526
368.14	-2.381
368.35	100.000
368.57	24.051
368.79	113.208
369.00	71.429
369.22	-130.000
369.43	73.438
369.65	-70.000
369.87	125.714
370.08	58.333
370.30	100.000
370.51	400.000
370.73	3.030
370.95	11.538
371.16	109.259
371.38	425.000
371.60	400.000
371.81	15.789
372.03	59.420
372.24	-575.000
372.46	10.345
372.68	12.500
372.89	35.088
373.11	27.119
373.32	33.333
373.54	-5.263
373.76	104.082
373.97	40.541
374.19	-64.103
374.40	1.724
374.62	-46.875
374.84	14.000
375.05	51.852
375.27	84.000
375.48	41.176
375.70	17.241
375.92	32.692
376.13	-33.333
376.35	20.635
376.56	-100.000
376.78	113.636
376.99	61.538
377.21	-48.837
377.43	69.231
377.64	67.532
377.86	150.000
378.07	-140.000
378.29	31.818
378.51	49.383
378.72	72.603
378.94	70.000
379.15	59.649
379.37	28.000
379.58	18.750
379.80	112.500
380.01	-63.158
380.23	15.556
380.45	42.105
380.66	-7.246
380.88	90.909
381.09	65.625
381.31	75.000
381.52	0.000
381.74	94.737
381.95	-360.000
382.17	43.182
382.39	20.690
382.60	88.095
382.82	28.000
383.03	56.250
383.25	-1.250
383.46	0.000
383.68	56.818
383.89	41.905
384.11	86.441
384.32	37.209
384.54	42.424
384.76	-43.478
384.97	1.961
385.19	72.917
385.40	-20.968
385.62	-24.138
385.83	34.921
386.05	75.000
386.26	114.815
386.48	24.590
386.69	49.383
386.91	0.000
387.12	55.385
387.34	13.462
387.55	-50.000
387.77	9.589
387.98	9.804
388.20	19.737
388.41	-17.143
388.63	14.000
388.84	25.000
389.06	46.970
389.27	37.624
389.49	26.154
389.70	13.725
389.92	46.429
390.13	57.143
390.35	14.706
390.56	23.529
390.78	31.818
390.99	54.930
391.21	16.176
391.42	22.222
391.64	27.500
391.85	75.000
392.07	262.500
392.28	-8.197
392.50	12.222
392.71	22.581
392.93	60.345
393.14	24.528
393.36	40.566
393.57	51.613
393.79	-2000.000
394.00	92.157
394.22	16.667
394.43	39.785
394.65	-3.226
394.86	39.423
395.08	25.316
395.29	15.294
395.50	23.171
395.72	-3.226
395.93	33.835
396.15	50.000
396.36	28.736
396.58	55.652
396.79	36.486
397.01	-4.688
397.22	20.896
397.44	15.126
397.65	27.500
397.87	62.162
398.08	-4.274
398.29	19.118
398.51	37.333
398.72	56.061
398.94	15.789
399.15	13.861
399.37	42.537
399.58	46.809
399.80	22.549
400.01	45.238
400.22	7.407
400.44	3.333
400.65	16.176
400.87	47.414
401.08	10.606
401.30	31.944
401.51	30.645
401.72	24.516
401.94	37.931
402.15	-30.172
402.37	3.774
402.58	-1.389
402.80	28.767
403.01	-11.111
403.22	9.474
403.44	22.727
403.65	53.676
403.87	14.286
404.08	25.641
404.30	13.846
404.51	11.864
404.72	24.823
404.94	23.664
405.15	24.324
405.37	32.283
405.58	-2.857
405.79	-29.474
406.01	17.647
406.22	15.200
406.44	20.567
406.65	44.375
406.86	15.894
407.08	23.148
407.29	32.895
407.51	17.949
407.72	17.361
407.93	7.237
408.15	26.994
408.36	7.299
408.58	28.649
408.79	-2.113
409.00	18.710
409.22	13.115
409.43	14.894
409.64	0.781
409.86	14.198
410.07	-1.899
410.29	8.411
410.50	7.627
410.71	-5.229
410.93	17.647
411.14	21.472
411.35	33.987
411.57	-6.024
411.78	11.243
412.00	51.748
412.21	4.795
412.42	18.563
412.64	-13.636
412.85	8.772
413.06	-5.963
413.28	6.000
413.49	25.604
413.70	14.124
413.92	26.207
414.13	-16.964
414.34	28.796
414.56	-5.521
414.77	5.882
414.98	11.518
415.20	15.029
415.41	-5.556
415.63	8.772
415.84	5.882
416.05	17.826
416.27	2.273
416.48	23.770
416.69	20.270
416.91	2.899
417.12	0.521
417.33	21.941
417.55	-10.465
417.76	8.046
417.97	13.659
418.19	40.942
418.40	1.099
418.61	18.908
418.83	19.005
419.04	4.955
419.25	15.984
419.46	10.917
419.68	10.000
419.89	11.230
420.10	-2.092
420.32	11.155
420.53	3.614
420.74	15.769
420.96	9.163
421.17	5.138
421.38	-8.812
421.60	10.833
421.81	-0.833
422.02	30.651
422.23	5.394
422.45	16.296
422.66	21.667
422.87	-4.580
423.09	-12.335
423.30	-0.926
423.51	12.546
423.73	12.554
423.94	14.187
424.15	17.761
424.36	18.125
424.58	18.339
424.79	8.911
425.00	11.268
425.22	18.333
425.43	13.406
425.64	-5.519
425.85	-9.717
426.07	2.524
426.28	-8.562
426.49	6.273
426.71	4.971
426.92	3.846
427.13	0.000
427.34	4.848
427.56	3.274
427.77	0.000
427.98	-10.887
428.19	3.089
428.41	3.413
428.62	4.452
428.83	17.270
429.04	1.863
429.26	16.814
429.47	13.231
429.68	-6.154
429.89	17.857
430.11	2.344
430.32	6.069
430.53	11.667
430.74	-4.969
430.96	12.827
431.17	8.262
431.38	-3.871
431.59	-6.116
431.81	5.376
432.02	-12.079
432.23	2.727
432.44	8.718
432.66	10.056
432.87	0.912
433.08	3.009
433.29	1.015
433.51	14.951
433.72	14.520
433.93	3.730
434.14	5.399
434.35	7.990
434.57	10.482
434.78	7.952
434.99	14.440
435.20	20.388
435.42	10.451
435.63	20.295
435.84	16.438
436.05	24.691
436.26	12.934
436.48	13.084
436.69	8.085
436.90	8.829
437.11	16.387
437.32	13.152
437.54	10.187
437.75	15.507
437.96	8.782
438.17	5.967
438.38	19.076
438.60	12.500
438.81	7.631
439.02	6.719
439.23	3.704
439.44	4.688
439.66	8.214
439.87	5.039
440.08	10.950
440.29	8.915
440.50	1.359
440.72	2.251
440.93	5.882
441.14	3.442
441.35	4.845
441.56	4.635
441.77	11.823
441.99	3.980
442.20	5.914
442.41	6.082
442.62	5.000
442.83	5.743
443.04	8.511
443.26	13.876
443.47	10.376
443.68	9.764
443.89	3.315
444.10	7.527
444.31	-2.359
444.53	6.678
444.74	3.797
444.95	2.712
445.16	2.852
445.37	5.016
445.58	14.516
445.80	6.785
446.01	10.824
446.22	3.761
446.43	12.270
446.64	5.972
446.85	12.214
447.06	10.242
447.28	17.836
447.49	14.623
447.70	11.162
447.91	9.955
448.12	12.533
448.33	12.414
448.54	13.447
448.76	19.915
448.97	26.657
449.18	28.756
449.39	27.718
449.60	35.534
449.81	40.923
450.02	43.441
450.23	48.828
450.45	54.868
450.66	57.484
450.87	66.881
451.08	67.574
451.29	78.442
451.50	74.308
451.71	76.471
451.92	76.593
452.13	84.080
452.35	88.560
452.56	85.643
452.77	93.290
452.98	101.233
453.19	86.973
453.40	96.850
453.61	96.242
453.82	99.482
454.03	95.337
454.25	102.839
454.46	97.330
454.67	95.574
454.88	87.010
455.09	89.888
455.30	92.588
455.51	92.930
455.72	98.471
455.93	110.130
456.14	102.095
456.35	92.721
456.56	96.287
456.78	97.625
456.99	93.532
457.20	90.033
457.41	91.540
457.62	86.323
457.83	86.154
458.04	94.990
458.25	89.016
458.46	88.218
458.67	85.492
458.88	97.444
459.09	93.516
459.30	98.667
459.51	93.107
459.73	98.723
459.94	90.156
460.15	92.843
460.36	93.243
460.57	92.349
460.78	89.800
460.99	91.092
461.20	90.692
461.41	90.179
461.62	94.895
461.83	96.441
462.04	92.716
462.25	95.230
462.46	97.636
462.67	95.826
462.88	97.660
463.09	97.509
463.30	91.513
463.51	103.883
463.72	93.271
463.93	100.595
464.15	98.958
464.36	91.811
464.57	98.474
464.78	91.997
464.99	85.864
465.20	90.842
465.41	97.434
465.62	90.609
465.83	92.132
466.04	97.559
466.25	92.022
466.46	97.519
466.67	97.411
466.88	92.190
467.09	94.517
467.30	92.098
467.51	93.993
467.72	99.374
467.93	105.302
468.14	93.475
468.35	99.072
468.56	92.857
468.77	96.036
468.98	95.198
469.19	95.142
469.40	94.679
469.61	93.817
469.82	93.919
470.03	91.718
470.24	96.491
470.45	92.775
470.66	94.091
470.87	99.042
471.08	101.084
471.29	101.896
471.50	95.754
471.71	99.545
471.92	96.898
472.13	96.783
472.34	103.023
472.55	94.689
472.76	100.282
472.97	97.884
473.18	99.023
473.39	98.779
473.60	95.783
473.81	94.995
474.01	98.420
474.22	96.793
474.43	95.215
474.64	96.630
474.85	91.529
475.06	92.232
475.27	93.715
475.48	92.454
475.69	93.688
475.90	95.294
476.11	96.580
476.32	98.888
476.53	98.202
476.74	100.000
476.95	96.897
477.16	95.728
477.37	97.736
477.58	99.494
477.79	98.500
478.00	98.949
478.21	92.135
478.41	95.713
478.62	93.585
478.83	97.797
479.04	100.527
479.25	95.692
479.46	95.075
479.67	100.589
479.88	96.930
480.09	101.777
480.30	98.617
480.51	99.853
480.72	99.065
480.93	93.125
481.14	90.105
481.34	91.904
481.55	96.818
481.76	94.301
481.97	96.541
482.18	94.571
482.39	94.883
482.60	96.111
482.81	98.989
483.02	103.675
483.23	98.586
483.44	100.452
483.65	100.065
483.85	97.305
484.06	94.662
484.27	99.357
484.48	102.063
484.69	105.066
484.90	105.561
485.11	103.883
485.32	102.813
485.53	101.089
485.73	99.033
485.94	99.971
486.15	95.037
486.36	98.680
486.57	95.946
486.78	96.488
486.99	98.756
487.20	94.249
487.41	97.622
487.61	97.200
487.82	97.846
488.03	96.160
488.24	96.982
488.45	98.675
488.66	95.737
488.87	95.798
489.08	99.140
489.28	100.570
489.49	100.403
489.70	96.570
489.91	96.379
490.12	94.678
490.33	97.256
490.54	99.237
490.74	96.590
490.95	100.000
491.16	96.124
491.37	96.913
491.58	94.994
491.79	94.862
492.00	97.317
492.20	97.774
492.41	98.498
492.62	94.418
492.83	101.067
493.04	102.036
493.25	100.921
493.45	103.885
493.66	96.954
493.87	94.768
494.08	92.179
494.29	92.680
494.50	95.071
494.70	93.363
494.91	96.633
495.12	97.032
495.33	101.139
495.54	100.067
495.75	98.385
495.95	102.171
496.16	98.973
496.37	95.122
496.58	95.660
496.79	95.041
496.99	93.782
497.20	93.006
497.41	92.863
497.62	91.263
497.83	90.793
498.04	84.665
498.24	78.735
498.45	72.656
498.66	63.211
498.87	54.730
499.08	48.410
499.28	40.318
499.49	36.536
499.70	29.889
499.91	22.340
500.12	17.674
500.32	14.207
500.53	10.446
500.74	7.800
500.95	5.488
501.15	4.693
501.36	3.584
501.57	2.922
501.78	1.521
501.99	2.245
502.19	2.317
502.40	1.713
502.61	1.443
502.82	1.316
503.02	2.045
503.23	1.976
503.44	1.804
503.65	1.870
503.86	2.439
504.06	1.509
504.27	0.977
504.48	1.355
504.69	0.971
504.89	1.543
505.10	1.565
505.31	1.403
505.52	1.430
505.72	1.718
505.93	2.066
506.14	1.519
506.35	0.322
506.55	1.568
506.76	1.613
506.97	1.712
507.18	0.704
507.38	1.979
507.59	1.254
507.80	1.189
508.01	1.402
508.21	0.317
508.42	0.456
508.63	0.563
508.84	1.293
509.04	0.827
509.25	1.262
509.46	1.047
509.67	0.770
509.87	1.083
510.08	1.834
510.29	0.664
510.49	1.021
510.70	0.997
510.91	0.778
511.12	0.547
511.32	1.171
511.53	0.978
511.74	1.116
511.94	1.603
512.15	0.486
512.36	0.626
512.57	0.506
512.77	0.513
512.98	0.678
513.19	0.994
513.39	0.628
513.60	0.718
513.81	0.106
514.01	0.358
514.22	1.290
514.43	1.063
514.64	0.741
514.84	-0.032
515.05	1.220
515.26	0.874
515.46	0.709
515.67	0.945
515.88	0.742
516.08	0.162
516.29	1.217
516.50	1.571
516.70	1.275
516.91	1.184
517.12	0.475
517.32	0.898
517.53	1.091
517.74	1.012
517.95	0.586
518.15	0.644
518.36	1.213
518.57	0.652
518.77	0.553
518.98	1.058
519.19	0.514
519.39	0.513
519.60	1.106
519.80	0.899
520.01	0.584
520.22	1.165
520.42	0.818
520.63	0.434
520.84	0.987
521.04	0.533
521.25	0.079
521.46	0.820
521.66	1.073
521.87	0.594
522.08	1.273
522.28	0.795
522.49	0.707
522.70	0.550
522.90	0.453
523.11	0.637
523.31	0.923
523.52	0.583
523.73	0.739
523.93	1.070
524.14	0.354
524.35	0.989
524.55	1.453
524.76	0.274
524.97	1.563
525.17	1.032
525.38	0.976
525.58	0.862
525.79	0.888
526.00	0.479
526.20	1.098
526.41	0.829
526.61	0.683
526.82	0.441
527.03	0.558
527.23	1.222
527.44	0.819
527.64	1.214
527.85	0.830
528.06	0.406
528.26	0.460
528.47	1.073
528.68	0.420
528.88	0.563
529.09	0.445
529.29	0.762
529.50	0.949
529.70	0.771
529.91	0.222
530.12	0.680
530.32	0.964
530.53	0.846
530.73	1.002
530.94	0.249
531.15	1.229
531.35	1.325
531.56	0.723
531.76	1.307
531.97	1.073
532.17	1.072
532.38	1.540
532.59	1.115
532.79	1.032
533.00	1.299
533.20	1.318
533.41	0.797
533.61	1.127
533.82	0.675
534.03	0.851
534.23	0.898
534.44	0.610
534.64	1.301
534.85	1.164
535.05	0.805
535.26	0.767
535.46	1.629
535.67	0.721
535.88	1.340
536.08	1.064
536.29	1.040
536.49	0.752
536.70	1.097
536.90	1.147
537.11	1.127
537.31	0.930
537.52	0.935
537.72	1.924
537.93	1.028
538.13	1.493
538.34	1.624
538.55	1.629
538.75	1.432
538.96	1.199
539.16	1.088
539.37	1.770
539.57	1.483
539.78	1.864
539.98	2.095
540.19	1.718
540.39	2.481
540.60	1.927
540.80	2.262
541.01	1.979
541.21	2.625
541.42	2.842
541.62	2.723
541.83	2.932
542.03	2.957
542.24	2.863
542.44	3.323
542.65	3.612
542.85	3.290
543.06	3.811
543.26	3.613
543.47	3.340
543.67	3.617
543.88	3.351
544.08	3.481
544.29	3.807
544.49	3.609
544.70	3.283
544.90	3.669
545.11	3.825
545.31	3.418
545.52	4.356
545.72	4.604
545.93	5.559
546.13	4.925
546.34	4.552
546.54	4.562
546.75	3.950
546.95	3.714
547.15	3.889
547.36	4.217
547.56	3.462
547.77	3.950
547.97	3.439
548.18	4.004
548.38	4.014
548.59	4.692
548.79	5.620
549.00	6.492
549.20	8.135
549.41	10.547
549.61	11.899
549.81	14.690
550.02	17.196
550.22	20.622
550.43	23.945
550.63	28.223
550.84	31.940
551.04	36.827
551.25	39.779
551.45	46.133
551.65	53.022
551.86	57.036
552.06	63.204
552.27	68.706
552.47	73.632
552.68	76.501
552.88	80.870
553.08	82.342
553.29	85.200
553.49	88.519
553.70	93.612
553.90	95.655
554.11	98.811
554.31	101.363
554.51	104.362
554.72	102.830
554.92	102.182
555.13	105.167
555.33	104.399
555.53	106.428
555.74	106.832
555.94	102.943
556.15	102.537
556.35	100.603
556.56	102.088
556.76	100.907
556.96	101.263
557.17	100.364
557.37	98.607
557.58	99.921
557.78	100.354
557.98	99.118
558.19	99.282
558.39	99.582
558.59	97.467
558.80	97.173
559.00	98.567
559.21	99.365
559.41	97.440
559.61	97.728
559.82	97.224
560.02	98.555
560.23	99.157
560.43	96.893
560.63	96.573
560.84	97.604
561.04	98.101
561.24	99.252
561.45	101.659
561.65	101.798
561.85	102.378
562.06	99.889
562.26	102.165
562.47	101.834
562.67	102.217
562.87	100.601
563.08	100.680
563.28	100.710
563.48	100.139
563.69	99.244
563.89	97.623
564.09	98.735
564.30	97.607
564.50	95.854
564.70	98.776
564.91	98.093
565.11	95.492
565.31	96.119
565.52	94.887
565.72	98.711
565.92	97.074
566.13	97.797
566.33	97.236
566.53	97.720
566.74	98.700
566.94	100.179
567.14	99.280
567.35	98.924
567.55	99.304
567.75	100.119
567.96	102.176
568.16	100.522
568.36	100.415
568.57	99.985
568.77	98.091
568.97	98.203
569.18	96.834
569.38	98.002
569.58	96.275
569.79	97.100
569.99	95.348
570.19	96.516
570.39	96.708
570.60	97.750
570.80	100.232
571.00	101.919
571.21	100.246
571.41	100.757
571.61	99.684
571.82	96.927
572.02	100.902
572.22	100.966
572.42	103.741
572.63	105.778
572.83	107.351
573.03	103.880
573.24	105.627
573.44	103.208
573.64	101.394
573.84	98.475
574.05	98.608
574.25	96.691
574.45	95.958
574.66	97.023
574.86	98.889
575.06	99.487
575.26	100.923
575.47	100.194
575.67	100.200
575.87	100.535
576.07	100.119
576.28	99.103
576.48	97.324
576.68	100.127
576.88	100.420
577.09	103.063
577.29	103.761
577.49	102.998
577.69	102.427
577.90	100.804
578.10	100.345
578.30	99.167
578.50	99.316
578.71	99.412
578.91	103.804
579.11	102.234
579.31	101.380
579.52	102.503
579.72	102.943
579.92	101.312
580.12	103.876
580.33	105.311
580.53	106.176
580.73	103.122
580.93	101.837
581.13	101.045
581.34	98.009
581.54	97.331
581.74	97.557
581.94	96.711
582.15	97.747
582.35	97.017
582.55	96.857
582.75	98.047
582.95	101.442
583.16	101.954
583.36	102.821
583.56	101.136
583.76	99.127
583.96	100.892
584.17	100.322
584.37	102.194
584.57	102.670
584.77	101.339
584.97	100.441
585.18	97.910
585.38	97.273
585.58	94.928
585.78	96.060
585.98	97.908
586.19	97.650
586.39	99.152
586.59	100.367
586.79	100.823
586.99	99.618
587.20	101.482
587.40	101.991
587.60	102.868
587.80	102.451
588.00	102.884
588.20	103.874
588.41	107.939
588.61	108.434
588.81	107.433
589.01	104.457
589.21	102.320
589.41	99.967
589.62	97.811
589.82	96.620
590.02	95.960
590.22	95.089
590.42	93.446
590.62	95.887
590.83	96.482
591.03	99.980
591.23	101.840
591.43	103.097
591.63	104.875
591.83	105.653
592.03	102.585
592.24	101.545
592.44	98.815
592.64	97.174
592.84	96.297
593.04	94.569
593.24	95.502
593.44	98.163
593.65	100.158
593.85	101.835
594.05	103.538
594.25	105.908
594.45	102.928
594.65	100.007
594.85	98.004
595.06	96.121
595.26	94.983
595.46	97.483
595.66	98.404
595.86	98.565
596.06	99.041
596.26	99.905
596.46	99.162
596.66	98.524
596.87	99.261
597.07	99.161
597.27	100.032
597.47	99.815
597.67	102.310
597.87	99.764
598.07	100.737
598.27	102.470
598.47	102.953
598.67	103.983
598.88	102.241
599.08	102.451
599.28	102.422
599.48	101.533
599.68	102.092
599.88	100.997
600.08	102.842
600.28	101.885
600.48	102.397
600.68	100.995
600.88	100.112
601.09	98.991
601.29	98.039
601.49	98.532
601.69	97.457
601.89	97.054
602.09	95.161
602.29	95.887
602.49	95.020
602.69	94.291
602.89	94.665
603.09	95.556
603.29	96.869
603.49	98.164
603.69	97.750
603.90	98.106
604.10	98.305
604.30	99.264
604.50	99.402
604.70	98.700
604.90	95.938
605.10	95.912
605.30	95.270
605.50	94.889
605.70	94.248
605.90	95.408
606.10	96.803
606.30	93.710
606.50	93.452
606.70	90.993
606.90	87.340
607.10	82.106
607.30	75.552
607.50	69.718
607.70	62.892
607.90	56.326
608.10	50.790
608.30	44.509
608.50	38.779
608.70	33.251
608.90	27.957
609.11	23.920
609.31	19.799
609.51	16.474
609.71	13.946
609.91	11.418
610.11	9.108
610.31	7.675
610.51	6.462
610.71	5.581
610.91	4.445
611.11	3.769
611.31	3.656
611.51	3.486
611.71	2.902
611.91	2.617
612.11	2.518
612.31	2.408
612.51	2.099
612.71	2.301
612.91	2.049
613.11	2.129
613.31	1.898
613.51	1.636
613.71	1.649
613.91	1.602
614.11	1.481
614.31	1.429
614.50	1.479
614.70	1.465
614.90	1.387
615.10	1.039
615.30	1.409
615.50	1.336
615.70	1.030
615.90	1.219
616.10	0.968
616.30	1.084
616.50	0.911
616.70	0.991
616.90	0.873
617.10	0.975
617.30	0.688
617.50	0.792
617.70	0.609
617.90	0.543
618.10	1.029
618.30	0.917
618.50	0.841
618.70	0.853
618.90	0.653
619.10	0.878
619.30	0.822
619.49	0.627
619.69	1.011
619.89	0.857
620.09	0.780
620.29	0.837
620.49	0.832
620.69	0.542
620.89	0.703
621.09	0.620
621.29	0.882
621.49	0.702
621.69	0.852
621.89	0.616
622.09	0.670
622.29	0.708
622.48	0.803
622.68	0.449
622.88	0.706
623.08	0.653
623.28	0.710
623.48	0.654
623.68	0.464
623.88	0.594
624.08	0.628
624.28	0.831
624.48	0.604
624.67	0.656
624.87	0.672
625.07	0.727
625.27	0.513
625.47	0.722
625.67	0.399
625.87	0.681
626.07	0.738
626.27	0.487
626.47	0.732
626.66	0.689
626.86	0.707
627.06	0.501
627.26	0.473
627.46	0.481
627.66	0.654
627.86	0.400
628.06	0.534
628.25	0.727
628.45	0.471
628.65	0.830
628.85	0.782
629.05	0.734
629.25	0.532
629.45	0.708
629.65	0.609
629.84	0.650
630.04	0.807
630.24	0.493
630.44	0.850
630.64	0.661
630.84	0.523
631.04	0.930
631.23	0.613
631.43	0.829
631.63	0.559
631.83	0.713
632.03	0.853
632.23	0.671
632.42	0.556
632.62	0.638
632.82	0.699
633.02	0.807
633.22	0.421
633.42	0.675
633.62	0.730
633.81	0.629
634.01	0.466
634.21	0.587
634.41	0.760
634.61	0.545
634.80	0.598
635.00	0.745
635.20	0.674
635.40	0.824
635.60	0.692
635.80	0.693
635.99	0.788
636.19	0.793
636.39	0.620
636.59	0.807
636.79	0.756
636.98	0.683
637.18	0.762
637.38	0.765
637.58	0.851
637.78	0.860
637.97	0.895
638.17	0.933
638.37	0.947
638.57	0.827
638.77	0.873
638.96	1.020
639.16	0.867
639.36	0.696
639.56	0.843
639.76	0.960
639.95	1.061
640.15	0.790
640.35	0.967
640.55	0.753
640.75	0.925
640.94	0.930
641.14	0.762
641.34	0.937
641.54	1.061
641.73	1.010
641.93	0.945
642.13	1.064
642.33	1.112
642.53	0.737
642.72	1.145
642.92	1.087
643.12	1.275
643.32	1.276
643.51	1.201
643.71	0.962
643.91	1.337
644.11	1.111
644.30	1.329
644.50	1.228
644.70	1.155
644.90	1.175
645.09	1.182
645.29	1.406
645.49	1.354
645.69	1.392
645.88	1.421
646.08	1.338
646.28	1.381
646.48	1.407
646.67	1.456
646.87	1.583
647.07	1.500
647.26	1.803
647.46	1.731
647.66	1.792
647.86	2.199
648.05	2.603
648.25	3.002
648.45	3.430
648.65	4.129
648.84	5.304
649.04	6.131
649.24	7.425
649.43	8.710
649.63	10.646
649.83	12.211
650.03	14.429
650.22	16.902
650.42	19.544
650.62	23.649
650.81	26.529
651.01	29.946
651.21	33.731
651.40	38.042
651.60	42.283
651.80	47.372
652.00	52.343
652.19	57.279
652.39	62.335
652.59	66.370
652.78	70.231
652.98	73.176
653.18	76.399
653.37	79.864
653.57	84.249
653.77	86.166
653.96	90.371
654.16	92.724
654.36	94.200
654.55	92.409
654.75	92.557
654.95	92.204
655.14	91.979
655.34	93.455
655.54	94.215
655.73	93.273
655.93	95.360
656.13	93.888
656.32	96.052
656.52	99.211
656.72	99.559
656.91	98.435
657.11	97.702
657.31	97.540
657.50	96.833
657.70	96.656
657.90	98.778
658.09	98.731
658.29	98.459
658.49	97.354
658.68	98.023
658.88	99.960
659.07	101.008
659.27	101.603
659.47	100.757
659.66	102.655
659.86	103.540
660.06	105.540
660.25	103.680
660.45	104.656
660.64	105.068
660.84	102.909
661.04	103.235
661.23	103.765
661.43	103.181
661.63	103.678
661.82	101.924
662.02	102.457
662.21	101.717
662.41	101.508
662.61	99.398
662.80	99.140
663.00	97.676
663.19	97.404
663.39	96.898
663.59	98.416
663.78	98.950
663.98	99.635
664.17	101.565
664.37	101.701
664.57	100.633
664.76	99.591
664.96	96.760
665.15	94.547
665.35	92.898
665.55	92.873
665.74	91.331
665.94	91.552
666.13	92.188
666.33	92.969
666.53	94.536
666.72	95.421
666.92	97.479
667.11	99.562
667.31	97.213
667.50	97.920
667.70	96.053
667.90	96.962
668.09	98.036
668.29	98.316
668.48	99.863
668.68	101.229
668.87	102.267
669.07	100.766
669.26	101.786
669.46	102.262
669.66	103.008
669.85	102.661
670.05	103.276
670.24	102.985
670.44	102.365
670.63	104.012
670.83	102.909
671.02	100.921
671.22	97.690
671.42	97.248
671.61	97.072
671.81	96.692
672.00	96.887
672.20	94.827
672.39	95.130
672.59	94.332
672.78	95.699
672.98	94.889
673.17	96.045
673.37	94.946
673.56	94.904
673.76	96.999
673.95	99.482
674.15	100.714
674.34	101.777
674.54	100.107
674.73	96.065
674.93	94.844
675.13	92.716
675.32	93.070
675.52	94.122
675.71	96.267
675.91	97.129
676.10	98.259
676.30	96.398
676.49	95.798
676.69	94.690
676.88	95.264
677.08	93.809
677.27	93.539
677.47	94.154
677.66	94.317
677.86	96.221
678.05	96.209
678.24	98.038
678.44	96.897
678.63	96.567
678.83	96.252
679.02	97.199
679.22	97.860
679.41	100.036
679.61	103.576
679.80	107.234
680.00	108.088
680.19	106.380
680.39	105.258
680.58	102.067
680.78	100.718
680.97	98.598
681.17	97.074
681.36	98.901
681.56	97.595
681.75	98.832
681.94	98.960
682.14	98.926
682.33	98.037
682.53	98.715
682.72	96.600
682.92	97.386
683.11	97.795
683.31	96.902
683.50	95.449
683.69	95.815
683.89	97.007
684.08	97.496
684.28	98.671
684.47	99.422
684.67	99.088
684.86	97.884
685.06	96.161
685.25	94.763
685.44	94.208
685.64	94.356
685.83	95.950
686.03	96.883
686.22	98.565
686.42	99.621
686.61	99.693
686.80	100.997
687.00	101.307
687.19	102.443
687.39	103.869
687.58	104.646
687.77	105.053
687.97	102.555
688.16	101.855
688.36	102.497
688.55	103.184
688.74	102.077
688.94	102.547
689.13	102.699
689.33	101.597
689.52	100.646
689.71	100.783
689.91	99.608
690.10	97.123
690.30	95.961
690.49	95.125
690.68	95.342
690.88	95.190
691.07	96.415
691.27	97.272
691.46	99.102
691.65	101.423
691.85	101.952
692.04	102.522
692.23	100.547
692.43	99.566
692.62	98.286
692.82	95.880
693.01	93.065
693.20	92.889
693.40	93.338
693.59	93.900
693.78	94.523
693.98	95.199
694.17	96.456
694.36	96.366
694.56	97.586
694.75	97.164
694.94	95.863
695.14	95.143
695.33	93.565
695.53	95.025
695.72	95.769
695.91	98.116
696.11	100.592
696.30	99.847
696.49	100.795
696.69	100.539
696.88	100.698
697.07	101.585
697.27	99.585
697.46	100.280
697.65	98.165
697.85	97.827
698.04	99.132
698.23	100.093
698.43	100.411
698.62	99.874
698.81	98.545
699.01	98.027
699.20	96.562
699.39	97.599
699.58	98.148
699.78	100.232
699.97	99.225
700.16	99.000
700.36	98.529
700.55	98.179
700.74	96.625
700.94	95.732
701.13	94.530
701.32	91.900
701.52	91.355
701.71	89.580
701.90	91.132
702.09	92.372
702.29	94.126
702.48	96.640
702.67	96.474
702.87	96.878
703.06	94.769
703.25	94.907
703.44	94.032
703.64	95.359
703.83	94.800
704.02	95.518
704.22	96.962
704.41	96.752
704.60	98.117
704.79	96.373
704.99	95.131
705.18	93.844
705.37	93.591
705.56	92.032
705.76	90.859
705.95	87.691
706.14	87.554
706.33	84.531
706.53	81.965
706.72	79.363
706.91	75.294
707.11	72.309
707.30	67.607
707.49	62.646
707.68	57.921
707.88	52.274
708.07	47.484
708.26	41.998
708.45	37.679
708.64	34.051
708.84	29.982
709.03	25.533
709.22	22.329
709.41	18.653
709.61	15.770
709.80	13.105
709.99	11.164
710.18	9.480
710.38	7.333
710.57	6.128
710.76	4.760
710.95	3.827
711.14	2.929
711.34	2.865
711.53	2.326
711.72	1.925
711.91	1.810
712.11	1.836
712.30	1.502
712.49	1.272
712.68	1.186
712.87	1.316
713.07	1.144
713.26	0.945
713.45	1.038
713.64	1.083
713.83	1.029
714.03	0.985
714.22	0.740
714.41	0.779
714.60	0.621
714.79	0.733
714.99	0.853
715.18	0.782
715.37	0.790
715.56	0.758
715.75	0.661
715.94	0.744
716.14	0.710
716.33	0.693
716.52	0.612
716.71	0.731
716.90	0.662
717.10	0.839
717.29	0.675
717.48	0.547
717.67	0.539
717.86	0.656
718.05	0.476
718.24	0.539
718.44	0.501
718.63	0.416
718.82	0.643
719.01	0.341
719.20	0.602
719.39	0.339
719.59	0.320
719.78	0.645
719.97	0.352
720.16	0.524
720.35	0.383
720.54	0.529
720.73	0.238
720.93	0.725
721.12	0.665
721.31	0.564
721.50	0.500
721.69	0.469
721.88	0.369
722.07	0.289
722.27	0.356
722.46	0.227
722.65	0.450
722.84	0.440
723.03	0.517
723.22	0.374
723.41	0.599
723.60	0.396
723.79	0.421
723.99	0.457
724.18	0.559
724.37	0.333
724.56	0.387
724.75	0.492
724.94	0.353
725.13	0.601
725.32	0.285
725.51	0.237
725.71	0.240
725.90	0.438
726.09	0.491
726.28	0.594
726.47	0.339
726.66	0.398
726.85	0.442
727.04	0.496
727.23	0.490
727.42	0.434
727.61	0.243
727.81	0.473
728.00	0.231
728.19	0.312
728.38	0.218
728.57	0.402
728.76	0.307
728.95	0.088
729.14	0.369
729.33	0.220
729.52	0.392
729.71	0.165
729.90	0.322
730.09	0.162
730.28	0.336
730.48	0.326
730.67	0.419
730.86	0.368
731.05	0.235
731.24	0.211
731.43	0.259
731.62	0.248
731.81	0.234
732.00	0.297
732.19	0.363
732.38	0.230
732.57	0.313
732.76	0.334
732.95	0.109
733.14	0.565
733.33	0.409
733.52	0.358
733.71	0.377
733.90	0.136
734.09	0.139
734.28	0.118
734.47	0.197
734.66	0.171
734.85	0.026
735.04	0.277
735.23	0.159
735.42	0.100
735.61	0.259
735.81	0.158
736.00	0.353
736.19	0.086
736.38	0.266
736.57	0.141
736.76	0.164
736.95	0.214
737.14	0.166
737.33	0.443
737.52	0.088
737.71	0.114
737.90	0.464
738.09	0.000
738.28	0.016
738.47	0.107
738.66	0.268
738.85	-0.134
739.04	0.076
739.22	0.100
739.41	0.428
739.60	-0.063
739.79	0.221
739.98	0.206
740.17	0.187
740.36	0.342
740.55	0.177
740.74	0.275
740.93	0.186
741.12	0.017
741.31	0.210
741.50	0.217
741.69	0.166
741.88	0.285
742.07	0.240
742.26	0.395
742.45	0.087
742.64	0.363
742.83	0.588
743.02	0.148
743.21	0.012
743.40	0.239
743.59	0.237
743.78	0.341
743.97	-0.142
744.16	0.000
744.34	0.241
744.53	0.402
744.72	0.067
744.91	0.520
745.10	0.317
745.29	0.238
745.48	0.244
745.67	0.190
745.86	0.500
746.05	0.318
746.24	0.253
746.43	-0.006
746.62	0.406
746.81	-0.006
747.00	0.104
747.18	0.214
747.37	0.103
747.56	0.224
747.75	0.103
747.94	0.099
748.13	0.166
748.32	0.294
748.51	0.166
748.70	0.174
748.89	0.266
749.08	0.159
749.26	0.110
749.45	-0.068
749.64	0.250
749.83	-0.341
750.02	0.187
750.21	-0.319
750.40	0.452
750.59	0.244
750.78	0.186
750.96	0.422
751.15	0.607
751.34	0.329
751.53	-0.008
751.72	0.053
751.91	-0.067
752.10	0.252
752.29	0.446
752.47	0.217
752.66	0.145
752.85	0.161
753.04	0.087
753.23	0.417
753.42	0.111
753.61	0.120
753.80	0.417
753.98	0.462
754.17	0.258
754.36	0.218
754.55	0.322
754.74	0.387
754.93	-0.009
755.12	0.157
755.30	0.224
755.49	0.027
755.68	0.199
755.87	-0.071
756.06	0.224
756.25	-0.018
756.43	0.370
756.62	0.242
756.81	0.587
757.00	0.459
757.19	0.150
757.38	0.278
757.56	0.577
757.75	0.300
757.94	0.418
758.13	0.338
758.32	0.613
758.51	0.247
758.69	0.228
758.88	0.228
759.07	0.172
759.26	0.335
759.45	0.362
759.63	0.484
759.82	0.675
760.01	0.437
760.20	-0.033
760.39	0.241
760.57	0.210
760.76	0.622
760.95	0.972
761.14	0.202
761.33	0.011
761.51	0.533
761.70	0.394
761.89	0.378
762.08	0.995
762.27	0.537
762.45	-0.012
762.64	0.725
762.83	0.852
763.02	0.507
763.21	-0.240
763.39	0.699
763.58	-0.408
763.77	0.358
763.96	0.580
764.14	0.917
764.33	0.832
764.52	0.464
764.71	0.200
764.89	-0.067
765.08	0.339
765.27	-0.387
765.46	-0.027
765.65	0.371
765.83	-0.068
766.02	0.135
766.21	-0.094
766.40	0.027
766.58	0.630
766.77	-0.171
766.96	0.492
767.15	0.357
767.33	0.367
767.52	0.432
767.71	0.297
767.90	0.517
768.08	0.680
768.27	0.481
768.46	0.451
768.64	0.341
768.83	0.461
769.02	0.322
769.21	0.067
769.39	0.034
769.58	0.257
769.77	0.531
769.96	0.887
770.14	0.597
770.33	0.472
770.52	0.406
770.70	0.136
770.89	0.498
771.08	0.272
771.27	0.911
771.45	0.377
771.64	0.191
771.83	0.594
772.01	0.087
772.20	1.040
772.39	0.000
772.57	0.489
772.76	-0.238
772.95	-0.292
773.14	0.649
773.32	0.832
773.51	0.322
773.70	0.340
773.88	-0.135
774.07	-0.175
774.26	0.569
774.44	-0.573
774.63	0.325
774.82	-0.312
775.00	0.283
775.19	0.951
775.38	-0.151
775.56	-0.400
775.75	0.269
775.94	-0.414
776.12	0.803
776.31	1.103
776.50	1.257
776.68	1.156
776.87	0.865
777.06	0.305
777.24	-0.731
777.43	0.288
777.62	0.123
777.80	0.225
777.99	0.124
778.18	0.834
778.36	0.397
778.55	-0.021
778.74	0.310
778.92	-0.374
779.11	0.892
779.29	0.857
779.48	1.202
779.67	-0.451
779.85	0.463
780.04	-0.082
780.23	1.211
780.41	0.061
780.60	0.183
780.79	0.219
780.97	0.020
781.16	0.315
781.34	-0.735
781.53	0.020
781.72	1.017
781.90	-0.078
782.09	0.912
782.28	0.797
782.46	0.314
782.65	0.098
782.83	0.060
783.02	-0.502
783.21	1.028
783.39	1.051
783.58	0.193
783.76	0.286
783.95	-0.249
784.14	0.467
784.32	-0.516
784.51	0.182
784.69	0.323
784.88	-0.200
785.06	-0.054
785.25	0.053
785.44	0.159
785.62	0.703
785.81	0.560
785.99	0.361
786.18	-0.370
786.37	-0.742
786.55	0.688
786.74	-0.343
786.92	0.376
787.11	0.673
787.29	-0.118
787.48	-0.239
787.67	-0.020
787.85	-0.097
788.04	0.600
788.22	0.443
788.41	0.411
788.59	0.809
788.78	-0.376
788.96	-0.135
789.15	0.039
789.34	0.803
789.52	0.347
789.71	0.190
789.89	0.133
790.08	0.459
790.26	0.162
790.45	-0.247
790.63	0.089
790.82	-0.140
791.00	0.280
791.19	0.620
791.38	0.416
791.56	0.926
791.75	-0.600
791.93	0.577
792.12	0.069
792.30	0.541
792.49	-0.275
792.67	0.069
792.86	0.452
793.04	0.762
793.23	-0.535
793.41	-0.225
793.60	-0.173
793.78	1.225
793.97	0.000
794.15	-0.070
794.34	0.944
794.52	0.156
794.71	-0.153
794.89	0.450
795.08	-0.097
795.26	-0.227
795.45	0.142
795.63	0.341
795.82	0.522
796.00	0.044
796.19	0.487
796.37	0.045
796.56	0.297
796.74	0.058
796.93	0.283
797.11	0.189
797.30	-0.058
797.48	0.304
797.67	0.388
797.85	0.205
798.04	1.034
798.22	-0.030
798.41	-0.306
798.59	0.400
798.77	0.459
798.96	0.046
799.14	-0.046
799.33	0.015
799.51	-0.257
799.70	0.896
799.88	0.121
800.07	-0.552
800.25	0.355
800.44	0.059
800.62	-0.133
800.80	0.132
800.99	0.163
801.17	-0.237
801.36	0.608
801.54	0.162
801.73	-0.265
801.91	0.219
802.10	0.029
802.28	0.291
802.46	1.452
802.65	-0.518
802.83	0.332
803.02	0.443
803.20	-0.085
803.39	0.289
803.57	0.387
803.75	0.194
803.94	-0.442
804.12	0.669
804.31	-0.047
804.49	0.256
804.67	0.148
804.86	0.442
805.04	-0.561
805.23	0.987
805.41	0.671
805.59	0.162
805.78	-0.176
805.96	-0.248
806.15	0.138
806.33	0.077
806.51	0.383
806.70	0.320
806.88	-0.152
807.07	0.247
807.25	0.269
807.43	0.221
807.62	0.718
807.80	0.032
807.99	-0.031
808.17	-0.603
808.35	-0.771
808.54	0.350
808.72	0.499
808.90	0.783
809.09	0.180
809.27	0.075
809.46	-0.109
809.64	-0.106
809.82	-0.881
810.01	-0.077
810.19	0.429
810.37	0.015
810.56	-0.611
810.74	0.749
810.92	0.030
811.11	-0.015
811.29	0.457
811.48	0.403
811.66	0.394
811.84	0.757
812.03	-0.082
812.21	0.049
812.39	0.469
812.58	0.608
812.76	0.478
812.94	0.113
813.13	0.176
813.31	0.454
813.49	0.000
813.68	0.187
813.86	0.154
814.04	-0.253
814.23	0.429
814.41	-0.133
814.59	0.178
814.78	-0.103
814.96	0.441
815.14	0.962
815.33	0.668
815.51	-0.770
815.69	0.482
815.87	-0.256
816.06	-0.129
816.24	0.132
816.42	0.619
816.61	-0.172
816.79	0.330
816.97	-0.489
817.16	0.658
817.34	1.141
817.52	-0.437
817.70	-0.038
817.89	-0.112
818.07	0.192
818.25	0.532
818.44	-0.072
818.62	0.911
818.80	-0.089
818.98	0.391
819.17	0.217
819.35	0.204
819.53	0.682
819.72	0.302
819.90	1.211
820.08	-0.174
820.26	0.367
820.45	-0.020
820.63	-0.358
820.81	0.556
820.99	0.060
821.18	0.079
821.36	0.724
821.54	-0.558
821.73	-0.116
821.91	0.300
822.09	-0.299
822.27	-0.100
822.46	0.534
822.64	1.539
822.82	0.062
823.00	-0.085
823.19	0.705
823.37	0.086
823.55	0.904
823.73	0.134
823.91	-0.432
824.10	0.575
824.28	0.398
824.46	0.219
824.64	0.643
824.83	-0.393
825.01	0.549
825.19	0.660
825.37	-0.289
825.56	-0.045
825.74	-0.347
825.92	-0.407
826.10	-0.670
826.28	-0.153
826.47	0.897
826.65	0.498
826.83	-0.133
827.01	0.981
827.19	0.760
827.38	-0.221
827.56	0.874
827.74	0.184
827.92	0.792
828.10	0.785
828.29	-0.345
828.47	1.066
828.65	-0.050
828.83	1.780
829.01	-0.025
829.20	1.325
829.38	0.621
829.56	0.672
829.74	0.438
829.92	1.063
830.10	0.104
830.29	-0.210
830.47	-0.363
830.65	0.232
830.83	-0.129
831.01	0.517
831.20	0.177
831.38	0.230
831.56	-0.678
831.74	0.515
831.92	0.232
832.10	0.551
832.29	1.108
832.47	0.565
832.65	1.057
832.83	-0.992
833.01	0.834
833.19	1.528
833.37	0.459
833.56	0.756
833.74	0.945
833.92	0.889
834.10	1.361
834.28	1.105
834.46	0.223
834.64	0.414
834.83	1.995
835.01	-0.493
835.19	1.271
835.37	-0.249
835.55	-0.385
835.73	0.984
835.91	-0.886
836.09	0.739
836.28	1.235
836.46	1.484
836.64	-0.853
836.82	1.007
837.00	-0.084
837.18	0.661
837.36	0.089
837.54	0.415
837.72	1.468
837.91	1.014
838.09	0.808
838.27	0.157
838.45	0.729
838.63	1.039
838.81	-0.559
838.99	-0.651
839.17	1.272
839.35	2.235
839.53	0.779
839.72	0.828
839.90	1.173
840.08	0.358
840.26	0.305
840.44	0.034
840.62	1.019
840.80	-0.431
840.98	0.410
841.16	-0.267
841.34	0.295
841.52	-0.945
841.70	1.126
841.89	0.230
842.07	-1.852
842.25	0.919
842.43	0.768
842.61	0.295
842.79	1.034
842.97	-0.408
843.15	1.704
843.33	0.034
843.51	0.172
843.69	1.876
843.87	0.439
844.05	0.177
844.23	1.828
844.41	2.527
844.59	1.161
844.77	0.113
844.95	0.903
845.13	0.192
845.31	0.112
845.50	0.757
845.68	-0.117
845.86	0.155
846.04	0.191
846.22	-0.656
846.40	2.763
846.58	0.440
846.76	1.231
846.94	1.274
847.12	0.193
847.30	0.932
847.48	-0.189
847.66	-0.077
847.84	-0.227
848.02	0.742
848.20	-0.850
848.38	1.732
848.56	1.140
848.74	0.118
848.92	0.955
849.10	1.256
849.28	-0.041
849.46	-1.188
849.64	0.405
849.82	1.437
850.00	0.958
850.18	-2.113
850.36	-0.689
850.54	1.078
850.72	-0.120
850.90	0.983
851.08	-0.332
851.26	0.374
851.44	1.106
851.62	1.792
851.80	2.052
851.98	1.627
852.16	2.862
852.34	1.080
852.52	1.684
852.70	1.409
852.87	0.206
853.05	-0.409
853.23	0.680
853.41	-0.165
853.59	1.161
853.77	0.291
853.95	1.043
854.13	0.649
854.31	2.275
854.49	2.049
854.67	-0.976
854.85	-0.228
855.03	2.004
855.21	0.770
855.39	1.272
855.57	0.936
855.75	2.138
855.93	1.798
856.11	-1.091
856.28	2.064
856.46	2.273
856.64	1.627
856.82	2.358
857.00	0.496
857.18	1.909
857.36	0.796
857.54	1.079
857.72	1.221
857.90	1.419
858.08	3.118
858.26	2.052
858.44	3.333
858.61	1.033
858.79	0.080
858.97	2.382
859.15	1.721
859.33	1.304
859.51	0.954
859.69	2.552
859.87	1.925
860.05	2.053
860.23	2.343
860.40	3.598
860.58	2.522
860.76	2.711
860.94	1.349
861.12	0.906
861.30	2.479
861.48	1.164
861.66	1.927
861.84	0.460
862.01	1.670
862.19	3.227
862.37	1.087
862.55	1.115
862.73	3.095
862.91	2.383
863.09	2.617
863.27	2.135
863.44	2.399
863.62	2.971
863.80	2.383
863.98	1.986
864.16	1.508
864.34	0.557
864.52	1.644
864.69	2.281
864.87	2.254
865.05	2.372
865.23	2.866
865.41	2.230
865.59	3.708
865.76	1.472
865.94	3.897
866.12	1.983
866.30	3.024
866.48	3.166
866.66	4.299
866.83	3.684
867.01	5.243
867.19	4.369
867.37	6.037
867.55	5.427
867.73	3.992
867.90	6.116
868.08	6.409
868.26	8.601
868.44	7.897
868.62	7.455
868.79	8.543
868.97	10.985
869.15	10.978
869.33	12.260
869.51	11.785
869.69	14.405
869.86	11.646
870.04	12.676
870.22	13.765
870.40	16.584
870.57	15.083
870.75	15.900
870.93	16.990
871.11	15.366
871.29	16.564
871.46	16.719
871.64	17.385
871.82	17.419
872.00	17.888
872.18	18.317
872.35	17.024
872.53	20.333
872.71	18.388
872.89	18.515
873.06	18.474
873.24	18.205
873.42	17.905
873.60	21.598
873.77	19.420
873.95	20.422
874.13	19.540
874.31	21.409
874.49	20.378
874.66	23.384
874.84	23.638
875.02	22.022
875.20	25.340
875.37	23.334
875.55	26.063
875.73	24.525
875.91	28.027
876.08	28.193
876.26	31.028
876.44	33.296
876.61	32.227
876.79	34.452
876.97	36.866
877.15	36.160
877.32	36.030
877.50	37.417
877.68	37.321
877.86	37.951
878.03	39.573
878.21	40.845
878.39	40.441
878.56	42.872
878.74	43.205
878.92	44.214
879.10	43.799
879.27	42.572
879.45	43.473
879.63	45.159
879.80	45.050
879.98	46.979
880.16	46.698
880.34	44.584
880.51	47.680
880.69	47.595
880.87	44.705
881.04	44.631
881.22	43.011
881.40	41.930
881.57	41.096
881.75	42.704
881.93	40.526
882.10	37.835
882.28	37.795
882.46	33.168
882.63	31.419
882.81	32.052
882.99	28.023
883.16	28.601
883.34	26.815
883.52	24.684
883.69	24.185
883.87	22.942
884.05	22.977
884.22	22.124
884.40	20.959
884.58	21.220
884.75	22.191
884.93	22.960
885.11	21.801
885.28	21.706
885.46	21.548
885.64	23.979
885.81	23.087
885.99	24.710
886.17	24.491
886.34	28.541
886.52	30.163
886.70	31.486
886.87	31.117
887.05	29.618
887.22	30.637
887.40	30.358
887.58	31.256
887.75	33.288
887.93	32.485
888.11	35.469
888.28	35.159
888.46	36.023
888.63	34.983
888.81	36.463
888.99	34.615
889.16	34.889
889.34	39.034
889.51	34.710
889.69	35.654
889.87	37.349
890.04	35.010
890.22	33.258
890.39	34.654
890.57	34.379
890.75	33.411
890.92	32.945
891.10	30.941
891.27	28.782
891.45	25.999
891.63	26.331
891.80	24.946
891.98	22.760
892.15	21.838
892.33	21.319
892.51	18.255
892.68	16.331
892.86	16.522
893.03	14.893
893.21	15.236
893.38	14.651
893.56	13.016
893.74	12.011
893.91	13.654
894.09	11.575
894.26	10.154
894.44	10.393
894.61	9.030
894.79	12.066
894.96	9.375
895.14	10.464
895.32	7.315
895.49	9.201
895.67	8.077
895.84	9.352
896.02	9.491
896.19	9.271
896.37	8.428
896.54	7.971
896.72	9.004
896.89	7.892
897.07	9.141
897.25	9.933
897.42	9.159
897.60	8.670
897.77	9.544
897.95	8.427
898.12	10.280
898.30	9.104
898.47	10.587
898.65	11.005
898.82	10.824
899.00	14.094
899.17	12.534
899.35	12.806
899.52	13.572
899.70	14.778
899.87	12.864
900.05	16.933
900.22	17.360
900.40	17.117
900.57	17.784
900.75	20.388
900.92	20.703
901.10	19.134
901.27	22.542
901.45	20.528
901.62	22.019
901.80	22.424
901.97	24.477
902.15	26.434
902.32	24.121
902.50	26.215
902.67	28.440
902.85	30.192
903.02	31.267
903.20	29.697
903.37	29.545
903.54	27.919
903.72	28.303
903.89	28.523
904.07	31.619
904.24	30.403
904.42	30.283
904.59	28.843
904.77	29.985
904.94	28.462
905.12	27.971
905.29	26.222
905.47	24.418
905.64	25.536
905.81	24.462
905.99	24.105
906.16	21.495
906.34	24.709
906.51	21.507
906.69	24.393
906.86	20.257
907.03	22.307
907.21	21.330
907.38	21.599
907.56	17.961
907.73	18.244
907.91	21.909
908.08	18.649
908.25	16.773
908.43	19.058
908.60	15.448
908.78	17.270
908.95	15.611
909.13	15.789
909.30	16.990
909.47	17.298
909.65	17.732
909.82	15.296
910.00	15.819
910.17	15.125
910.34	15.913
910.52	17.246
910.69	17.469
910.87	17.202
911.04	18.427
911.21	16.961
911.39	16.976
911.56	15.997
911.73	19.015
911.91	20.329
912.08	20.233
912.26	20.325
912.43	21.581
912.60	22.598
912.78	24.263
912.95	26.529
913.13	22.152
913.30	26.533
913.47	30.468
913.65	30.433
913.82	31.283
913.99	32.053
914.17	33.920
914.34	30.603
914.51	33.895
914.69	35.531
914.86	37.637
915.03	42.638
915.21	41.033
915.38	42.287
915.56	46.146
915.73	47.177
915.90	49.974
916.08	54.289
916.25	53.496
916.42	49.896
916.60	56.082
916.77	56.468
916.94	57.499
917.12	56.903
917.29	62.835
917.46	67.821
917.64	66.860
917.81	63.859
917.98	68.958
918.16	70.751
918.33	74.707
918.50	72.572
918.67	74.806
918.85	78.766
919.02	73.344
919.19	79.811
919.37	74.592
919.54	76.823
919.71	73.062
919.89	71.259
920.06	71.494
920.23	69.210
920.41	66.229
920.58	67.215
920.75	68.539
920.92	63.795
921.10	70.632
921.27	60.670
921.44	68.285
921.62	69.947
921.79	62.195
921.96	67.095
922.13	68.488
922.31	63.784
922.48	63.658
922.65	60.319
922.82	61.885
923.00	59.041
923.17	56.164
923.34	59.140
923.52	56.065
923.69	54.540
923.86	53.096
924.03	59.079
924.21	58.216
924.38	57.269
924.55	59.690
924.72	55.218
924.90	66.621
925.07	60.844
925.24	62.306
925.41	64.468
925.59	65.629
925.76	62.293
925.93	72.868
926.10	67.761
926.28	65.473
926.45	66.398
926.62	69.701
926.79	68.831
926.96	67.346
927.14	68.473
927.31	72.230
927.48	68.978
927.65	74.066
927.83	70.681
928.00	70.644
928.17	73.086
928.34	71.843
928.51	78.424
928.69	73.647
928.86	75.951
929.03	81.581
929.20	80.504
929.37	75.599
929.55	79.709
929.72	81.083
929.89	79.827
930.06	79.735
930.23	73.423
930.41	75.912
930.58	78.669
930.75	74.709
930.92	72.637
931.09	78.204
931.27	78.613
931.44	75.776
931.61	69.890
931.78	72.680
931.95	71.454
932.12	76.942
932.30	68.591
932.47	67.102
932.64	72.373
932.81	67.163
932.98	64.433
933.16	64.865
933.33	67.199
933.50	67.792
933.67	62.139
933.84	68.987
934.01	66.755
934.18	65.494
934.36	61.977
934.53	59.890
934.70	64.717
934.87	59.147
935.04	62.062
935.21	60.454
935.38	59.010
935.56	58.736
935.73	58.905
935.90	58.478
936.07	55.408
936.24	57.325
936.41	58.631
936.58	66.631
936.76	61.720
936.93	70.867
937.10	70.156
937.27	66.225
937.44	67.606
937.61	72.564
937.78	69.754
937.95	73.216
938.13	72.607
938.30	77.033
938.47	71.063
938.64	80.674
938.81	76.175
938.98	78.775
939.15	75.444
939.32	79.015
939.49	69.247
939.66	77.657
939.84	76.559
940.01	84.185
940.18	93.696
940.35	80.194
940.52	80.435
940.69	79.123
940.86	82.093
941.03	76.877
941.20	72.797
941.37	75.740
941.54	85.221
941.71	71.494
941.89	77.584
942.06	72.074
942.23	82.818
942.40	75.057
942.57	72.285
942.74	77.503
942.91	72.300
943.08	72.589
943.25	71.122
943.42	76.966
943.59	70.642
943.76	73.414
943.93	75.580
944.10	72.354
944.27	63.003
944.44	60.853
944.61	74.003
944.79	61.690
944.96	68.945
945.13	62.451
945.30	65.176
945.47	59.863
945.64	59.025
945.81	57.064
945.98	62.069
946.15	58.043
946.32	58.693
946.49	54.844
946.66	59.293
946.83	51.236
947.00	58.533
947.17	54.062
947.34	56.041
947.51	53.139
947.68	47.003
947.85	53.904
948.02	51.607
948.19	51.669
948.36	52.115
948.53	49.308
948.70	57.527
948.87	48.933
949.04	50.890
949.21	53.300
949.38	49.660
949.55	46.585
949.72	43.163
949.89	42.500
950.06	49.206
950.23	53.535
950.40	46.434
950.57	57.838
950.74	48.587
950.91	55.515
951.08	56.098
951.25	52.662
951.42	61.437
951.59	58.590
951.76	55.960
951.93	60.432
952.10	57.065
952.27	66.228
952.44	72.449
952.61	64.516
952.77	60.531
952.94	61.585
953.11	58.286
953.28	67.925
953.45	75.407
953.62	59.528
953.79	70.370
953.96	55.469
954.13	69.349
954.30	70.565
954.47	62.832
954.64	67.500
954.81	72.636
954.98	67.035
955.15	69.600
955.32	56.591
955.49	70.059
955.65	72.000
955.82	64.358
955.99	59.537
956.16	56.805
956.33	60.437
956.50	68.093
956.67	54.930
956.84	47.753
957.01	59.674
957.18	49.702
957.35	53.629
957.52	55.221
957.68	55.134
957.85	52.128
958.02	40.602
958.19	48.049
958.36	56.398
958.53	59.635
958.70	51.178
958.87	47.875
959.04	43.846
959.21	42.291
959.37	47.273
959.54	51.034
959.71	45.735
959.88	48.373
960.05	41.093
960.22	47.816
960.39	33.333
960.56	33.991
960.72	41.996
960.89	37.155
961.06	30.417
961.23	27.438
961.40	35.507
961.57	23.148
961.74	31.818
961.90	34.343
962.07	29.114
962.24	34.791
962.41	26.490
962.58	25.214
962.75	23.431
962.92	36.166
963.08	28.764
963.25	26.898
963.42	35.252
963.59	21.822
963.76	28.442
963.93	24.083
964.10	22.326
964.26	25.941
964.43	32.102
964.60	25.412
964.77	30.787
964.94	26.887
965.10	33.058
965.27	22.654
965.44	25.740
965.61	36.957
965.78	29.091
965.95	34.606
966.11	35.023
966.28	30.471
966.45	21.823
966.62	40.625
966.79	40.476
966.95	40.498
967.12	33.784
967.29	39.909
967.46	46.833
967.63	40.426
967.79	40.347
967.96	54.646
968.13	37.817
968.30	45.669
968.47	38.958
968.63	48.188
968.80	45.892
968.97	52.620
969.14	50.099
969.31	47.650
969.47	53.626
969.64	46.092
969.81	58.351
969.98	44.363
970.14	59.219
970.31	48.043
970.48	55.357
970.65	59.294
970.81	66.146
970.98	51.606
971.15	50.734
971.32	59.333
971.48	57.802
971.65	60.916
971.82	53.725
971.99	70.899
972.15	66.983
972.32	56.808
972.49	58.209
972.66	66.295
972.82	68.172
972.99	58.118
973.16	59.615
973.33	59.953
973.49	59.194
973.66	64.815
973.83	63.010
974.00	63.739
974.16	63.864
974.33	77.654
974.50	71.739
974.67	67.407
974.83	76.029
975.00	71.531
975.17	69.885
975.33	68.224
975.50	74.462
975.67	64.747
975.84	65.598
976.00	70.118
976.17	72.235
976.34	63.568
976.50	65.746
976.67	65.826
976.84	67.602
977.00	70.213
977.17	70.423
977.34	63.636
977.50	75.067
977.67	64.840
977.84	70.487
978.01	71.728
978.17	76.574
978.34	66.253
978.51	75.787
978.67	69.037
978.84	71.034
979.01	66.509
979.17	67.158
979.34	69.171
979.51	64.750
979.67	79.854
979.84	67.221
980.01	69.932
980.17	93.966
980.34	78.385
980.51	77.367
980.67	76.623
980.84	67.423
981.01	65.909
981.17	71.765
981.34	61.474
981.50	68.750
981.67	72.457
981.84	71.149
982.00	66.495
982.17	71.756
982.34	76.636
982.50	75.407
982.67	77.261
982.84	79.206
983.00	85.901
983.17	81.651
983.33	80.444
983.50	80.942
983.67	66.960
983.83	84.410
984.00	81.490
984.17	74.464
984.33	80.000
984.50	73.784
984.66	106.959
984.83	80.769
985.00	84.222
985.16	95.696
985.33	85.909
985.49	83.652
985.66	87.016
985.83	87.910
985.99	87.785
986.16	78.865
986.32	77.912
986.49	87.783
986.66	87.244
986.82	75.983
986.99	80.186
987.15	82.243
987.32	91.509
987.49	83.937
987.65	79.720
987.82	86.856
987.98	69.249
988.15	86.260
988.31	80.615
988.48	90.758
988.65	90.476
988.81	87.472
988.98	65.878
989.14	71.801
989.31	64.229
989.47	66.346
989.64	67.568
989.80	64.789
989.97	68.398
990.14	62.766
990.30	70.913
990.47	61.165
990.63	59.629
990.80	60.619
990.96	58.756
991.13	58.929
991.29	62.233
991.46	67.696
991.62	55.814
991.79	54.071
991.95	59.819
992.12	50.113
992.29	51.423
992.45	54.128
992.62	45.291
992.78	51.992
992.95	62.679
993.11	64.206
993.28	70.171
993.44	45.514
993.61	47.303
993.77	52.356
993.94	46.224
994.10	54.430
994.27	47.188
994.43	49.578
994.60	56.250
994.76	52.194
994.93	41.458
995.09	57.951
995.26	57.767
995.42	51.825
995.59	53.298
995.75	55.556
995.92	55.765
996.08	49.412
996.25	60.494
996.41	39.216
996.58	69.178
996.74	60.722
996.91	64.491
997.07	54.634
997.23	60.294
997.40	51.656
997.56	45.093
997.73	59.500
997.89	47.204
998.06	55.947
998.22	48.894
998.39	53.992
998.55	60.970
998.72	56.542
998.88	68.500
999.05	53.864
999.21	56.802
999.37	63.032
999.54	54.545
999.70	58.206
999.87	63.065
1000.03	70.320
1000.20	68.029
1000.36	59.472
1000.52	60.251
1000.69	65.253
1000.85	61.555
1001.02	56.621
1001.18	61.950
1001.35	66.667
1001.51	78.396
1001.67	58.129
1001.84	65.401
1002.00	62.395
1002.17	55.963
1002.33	68.618
1002.50	62.980
1002.66	73.223
1002.82	57.789
1002.99	63.733
1003.15	53.383
1003.32	68.672
1003.48	45.455
1003.64	51.145
1003.81	62.079
1003.97	50.228
1004.14	59.716
1004.30	52.826
1004.46	54.047
1004.63	41.342
1004.79	48.684
1004.95	52.956
1005.12	50.824
1005.28	50.000
1005.45	48.387
1005.61	45.477
1005.77	43.350
1005.94	46.188
1006.10	45.844
1006.26	37.170
1006.43	42.654
1006.59	37.921
1006.76	33.509
1006.92	34.588
1007.08	46.172
1007.25	25.386
1007.41	30.216
1007.57	17.157
1007.74	30.227
1007.90	32.216
1008.06	31.250
1008.23	30.513
1008.39	33.891
1008.55	32.028
1008.72	18.953
1008.88	25.111
1009.04	33.477
1009.21	35.561
1009.37	27.368
1009.53	27.578
1009.70	33.602
1009.86	39.153
1010.02	31.435
1010.19	33.143
1010.35	24.484
1010.51	34.845
1010.68	30.808
1010.84	29.921
1011.00	24.103
1011.17	30.194
1011.33	26.161
1011.49	25.141
1011.66	24.103
1011.82	29.668
1011.98	22.961
1012.14	16.438
1012.31	23.894
1012.47	31.458
1012.63	26.149
1012.80	30.159
1012.96	23.797
1013.12	26.389
1013.29	30.471
1013.45	25.587
1013.61	21.964
1013.77	26.873
1013.94	29.504
1014.10	-5.758
1014.26	34.901
1014.43	25.824
1014.59	27.174
1014.75	13.731
1014.91	33.638
1015.08	19.855
1015.24	25.000
1015.40	18.250
1015.56	17.368
1015.73	27.407
1015.89	23.387
1016.05	20.142
1016.21	28.021
1016.38	21.448
1016.54	19.883
1016.70	27.647
1016.86	26.149
1017.03	20.708
1017.19	18.204
1017.35	28.774
1017.51	24.110
1017.68	24.935
1017.84	19.294
1018.00	43.603
1018.16	18.611
1018.33	31.742
1018.49	32.063
1018.65	28.065
1018.81	31.804
1018.97	21.530
1019.14	26.431
1019.30	32.011
1019.46	35.739
1019.62	28.906
1019.79	32.602
1019.95	35.219
1020.11	27.103
1020.27	31.803
1020.43	35.789
1020.60	33.712
1020.76	38.577
1020.92	37.815
1021.08	35.197
1021.24	36.957
1021.41	29.667
1021.57	43.678
1021.73	39.016
1021.89	33.224
1022.05	31.359
1022.21	43.889
1022.38	40.571
1022.54	38.395
1022.70	36.000
1022.86	38.905
1023.02	37.391
1023.19	34.868
1023.35	42.444
1023.51	37.179
1023.67	43.895
1023.83	22.901
1023.99	44.718
1024.16	20.635
1024.32	26.537
1024.48	43.617
1024.64	30.795
1024.80	37.589
1024.96	35.185
1025.12	42.006
1025.29	33.216
1025.45	41.071
1025.61	34.839
1025.77	48.736
1025.93	49.689
1026.09	30.116
1026.26	52.703
1026.42	48.361
1026.58	49.481
1026.74	41.961
1026.90	36.556
1027.06	23.432
1027.22	32.886
1027.38	53.191
1027.55	42.718
1027.71	41.279
1027.87	52.542
1028.03	40.637
1028.19	40.000
1028.35	40.221
1028.51	40.909
1028.67	39.544
1028.83	27.706
1029.00	42.069
1029.16	39.062
1029.32	25.564
1029.48	31.250
1029.64	35.082
1029.80	56.911
1029.96	51.852
1030.12	49.084
1030.28	44.211
1030.44	51.984
1030.61	51.055
1030.77	36.475
1030.93	34.524
1031.09	19.608
1031.25	38.071
1031.41	48.193
1031.57	40.084
1031.73	20.833
1031.89	48.410
1032.05	61.423
1032.21	36.327
1032.37	44.604
1032.53	58.427
1032.69	56.223
1032.86	28.846
1033.02	25.249
1033.18	36.923
1033.34	37.634
1033.50	54.922
1033.66	39.623
1033.82	47.619
1033.98	41.379
1034.14	45.622
1034.30	59.924
1034.46	42.105
1034.62	41.961
1034.78	56.250
1034.94	32.130
1035.10	47.573
1035.26	43.299
1035.42	47.682
1035.58	44.043
1035.74	70.539
1035.90	60.000
1036.06	29.213
1036.22	42.366
1036.38	52.863
1036.54	43.033
1036.70	36.667
1036.86	52.577
1037.02	45.421
1037.18	65.714
1037.34	42.063
1037.50	68.447
1037.66	49.474
1037.82	58.333
1037.98	56.631
1038.14	50.276
1038.30	47.692
1038.46	58.273
1038.62	41.784
1038.78	56.731
1038.94	57.635
1039.10	47.847
1039.26	61.638
1039.42	51.835
1039.58	60.947
1039.74	45.607
1039.90	33.500
1040.06	70.732
>>>>>End Processed Spectral Data<<<<<
