SpectraSuite Data File
++++++++++++++++++++++++++++++++++++
Date: Wed Jan 25 18:09:54 EET 2017
User: TheoProf
Dark Spectrum Present: Yes
Reference Spectrum Present: Yes
Number of Sampled Component Spectra: 1
Spectrometers: USB4C02475
Integration Time (usec): 64136 (USB4C02475)
Spectra Averaged: 1 (USB4C02475)
Boxcar Smoothing: 0 (USB4C02475)
Correct for Electrical Dark: No (USB4C02475)
Strobe/Lamp Enabled: No (USB4C02475)
Correct for Detector Non-linearity: No (USB4C02475)
Correct for Stray Light: No (USB4C02475)
Number of Pixels in Processed Spectrum: 3648
>>>>>Begin Processed Spectral Data<<<<<
344.91	175.000
345.13	175.000
345.35	175.000
345.57	300.000
345.79	125.000
346.00	189.474
346.22	1075.000
346.44	-37.931
346.66	-480.000
346.87	75.862
347.09	-160.000
347.31	108.696
347.53	54.902
347.74	-2.632
347.96	142.857
348.18	91.667
348.40	121.053
348.61	-46.154
348.83	84.848
349.05	22.951
349.27	-8.333
349.48	211.765
349.70	29.412
349.92	58.065
350.14	42.623
350.35	85.185
350.57	16.667
350.79	129.412
351.01	46.154
351.22	-60.000
351.44	61.538
351.66	220.000
351.87	88.889
352.09	337.500
352.31	-65.714
352.53	30.000
352.74	-34.483
352.96	92.000
353.18	-12.195
353.40	-1100.000
353.61	0.000
353.83	-90.909
354.05	240.000
354.26	113.636
354.48	116.667
354.70	115.789
354.92	-61.538
355.13	182.759
355.35	30.189
355.57	45.098
355.78	103.226
356.00	100.000
356.22	80.822
356.44	26.563
356.65	71.154
356.87	76.923
357.09	98.000
357.30	46.939
357.52	333.333
357.74	50.909
357.95	12.500
358.17	104.545
358.39	41.860
358.60	131.250
358.82	146.154
359.04	-540.000
359.26	15.686
359.47	27.778
359.69	93.069
359.91	-20.000
360.12	-90.000
360.34	132.432
360.56	-83.333
360.77	84.615
360.99	106.897
361.21	8.929
361.42	80.851
361.64	162.500
361.86	-83.333
362.07	104.878
362.29	34.091
362.51	48.810
362.72	253.846
362.94	92.308
363.16	70.455
363.37	81.250
363.59	236.000
363.81	262.500
364.02	24.490
364.24	-100.000
364.46	84.615
364.67	200.000
364.89	-75.758
365.11	0.000
365.32	78.571
365.54	-121.053
365.76	58.621
365.97	-42.424
366.19	190.909
366.41	71.429
366.62	-11.429
366.84	-171.429
367.05	-1.818
367.27	118.182
367.49	54.839
367.70	102.857
367.92	60.526
368.14	-2.381
368.35	5.882
368.57	72.152
368.79	24.528
369.00	140.816
369.22	140.000
369.43	65.625
369.65	82.500
369.87	122.857
370.08	-63.889
370.30	-40.000
370.51	-480.000
370.73	60.606
370.95	-169.231
371.16	94.444
371.38	75.000
371.60	166.667
371.81	105.263
372.03	131.884
372.24	-525.000
372.46	155.172
372.68	250.000
372.89	33.333
373.11	52.542
373.32	-29.630
373.54	21.053
373.76	100.000
373.97	94.595
374.19	-102.564
374.40	-6.897
374.62	3.125
374.84	50.000
375.05	79.630
375.27	54.000
375.48	76.471
375.70	72.414
375.92	123.077
376.13	53.333
376.35	49.206
376.56	-142.857
376.78	127.273
376.99	7.692
377.21	-16.279
377.43	146.154
377.64	38.961
377.86	39.286
378.07	40.000
378.29	-9.091
378.51	30.864
378.72	100.000
378.94	35.714
379.15	40.351
379.37	20.000
379.58	-31.250
379.80	104.167
380.01	78.947
380.23	57.778
380.45	-89.474
380.66	-23.188
380.88	100.000
381.09	6.250
381.31	37.500
381.52	4.348
381.74	67.368
381.95	-40.000
382.17	-22.727
382.39	50.000
382.60	23.810
382.82	4.000
383.03	31.250
383.25	0.000
383.46	-110.526
383.68	50.000
383.89	-10.476
384.11	72.881
384.32	51.163
384.54	39.394
384.76	71.739
384.97	35.294
385.19	54.167
385.40	-3.226
385.62	13.793
385.83	46.032
386.05	51.667
386.26	-37.037
386.48	-6.557
386.69	27.160
386.91	0.000
387.12	63.077
387.34	28.846
387.55	-177.778
387.77	30.137
387.98	35.294
388.20	48.684
388.41	-37.143
388.63	44.000
388.84	130.882
389.06	28.788
389.27	34.653
389.49	78.462
389.70	70.588
389.92	-25.000
390.13	68.367
390.35	39.706
390.56	84.314
390.78	19.318
390.99	26.761
391.21	38.235
391.42	45.679
391.64	7.500
391.85	65.278
392.07	-350.000
392.28	36.066
392.50	55.556
392.71	-8.065
392.93	31.034
393.14	18.868
393.36	12.264
393.57	-4.301
393.79	200.000
394.00	62.745
394.22	9.722
394.43	56.989
394.65	29.032
394.86	21.154
395.08	6.329
395.29	47.059
395.50	1.220
395.72	-38.710
395.93	28.571
396.15	40.323
396.36	55.172
396.58	13.913
396.79	35.135
397.01	82.812
397.22	34.328
397.44	36.134
397.65	28.333
397.87	78.378
398.08	35.897
398.29	13.235
398.51	18.667
398.72	43.939
398.94	36.842
399.15	20.792
399.37	39.552
399.58	35.106
399.80	36.275
400.01	51.190
400.22	13.889
400.44	44.444
400.65	5.147
400.87	18.966
401.08	-7.576
401.30	-8.333
401.51	16.129
401.72	31.613
401.94	19.828
402.15	-6.897
402.37	12.264
402.58	-15.278
402.80	30.137
403.01	-23.457
403.22	55.789
403.44	23.485
403.65	52.941
403.87	37.857
404.08	-0.641
404.30	22.308
404.51	51.695
404.72	43.262
404.94	10.687
405.15	0.676
405.37	22.835
405.58	-32.857
405.79	34.737
406.01	39.869
406.22	8.800
406.44	29.078
406.65	6.250
406.86	31.126
407.08	15.741
407.29	15.132
407.51	26.923
407.72	13.889
407.93	34.868
408.15	24.540
408.36	17.518
408.58	29.189
408.79	-2.817
409.00	18.710
409.22	10.383
409.43	2.128
409.64	0.781
409.86	19.136
410.07	-1.899
410.29	19.159
410.50	4.237
410.71	16.993
410.93	18.182
411.14	-2.454
411.35	19.608
411.57	-10.241
411.78	4.734
412.00	13.287
412.21	7.534
412.42	5.389
412.64	3.030
412.85	30.409
413.06	9.633
413.28	6.000
413.49	21.739
413.70	-6.780
413.92	20.690
414.13	-15.179
414.34	24.607
414.56	11.043
414.77	14.118
414.98	26.702
415.20	-4.624
415.41	12.778
415.63	6.140
415.84	31.373
416.05	23.478
416.27	17.727
416.48	17.623
416.69	12.613
416.91	3.865
417.12	6.250
417.33	2.532
417.55	-22.093
417.76	-0.575
417.97	-11.220
418.19	32.246
418.40	13.736
418.61	21.849
418.83	1.810
419.04	8.108
419.25	4.508
419.46	21.397
419.68	24.762
419.89	-5.348
420.10	-0.837
420.32	23.108
420.53	7.631
420.74	16.154
420.96	17.530
421.17	15.415
421.38	0.383
421.60	17.917
421.81	1.250
422.02	7.280
422.23	2.905
422.45	4.074
422.66	0.417
422.87	5.725
423.09	-3.084
423.30	7.870
423.51	5.166
423.73	12.121
423.94	16.609
424.15	19.305
424.36	4.688
424.58	19.031
424.79	6.601
425.00	3.169
425.22	14.000
425.43	13.768
425.64	6.169
425.85	-5.263
426.07	-1.262
426.28	3.767
426.49	2.214
426.71	4.971
426.92	12.426
427.13	-5.281
427.34	8.788
427.56	11.310
427.77	-1.953
427.98	-14.919
428.19	-1.931
428.41	0.000
428.62	8.904
428.83	8.357
429.04	-5.280
429.26	7.375
429.47	9.846
429.68	-4.923
429.89	11.607
430.11	4.948
430.32	8.707
430.53	8.810
430.74	5.590
430.96	15.707
431.17	10.541
431.38	-2.581
431.59	-7.645
431.81	-4.301
432.02	-2.809
432.23	10.682
432.44	2.308
432.66	8.939
432.87	-9.422
433.08	-3.472
433.29	3.807
433.51	0.490
433.72	10.070
433.93	7.226
434.14	12.911
434.35	-2.906
434.57	7.338
434.78	7.952
434.99	12.284
435.20	10.680
435.42	17.418
435.63	18.819
435.84	7.877
436.05	9.171
436.26	3.668
436.48	11.963
436.69	11.489
436.90	6.526
437.11	7.076
437.32	5.219
437.54	4.990
437.75	12.326
437.96	3.593
438.17	-1.193
438.38	12.450
438.60	10.634
438.81	7.229
439.02	-3.360
439.23	3.333
439.44	6.641
439.66	10.000
439.87	4.070
440.08	17.975
440.29	5.426
440.50	6.796
440.72	4.019
440.93	9.447
441.14	-1.912
441.35	7.946
441.56	1.426
441.77	6.897
441.99	8.789
442.20	7.885
442.41	2.504
442.62	10.690
442.83	3.547
443.04	6.874
443.26	15.152
443.47	8.872
443.68	7.576
443.89	0.737
444.10	4.839
444.31	5.626
444.53	13.856
444.74	16.772
444.95	6.872
445.16	23.490
445.37	13.269
445.58	26.613
445.80	25.363
446.01	33.926
446.22	38.462
446.43	40.951
446.64	37.060
446.85	44.580
447.06	43.812
447.28	48.099
447.49	53.302
447.70	53.211
447.91	53.544
448.12	57.067
448.33	49.103
448.54	61.669
448.76	68.563
448.97	68.547
449.18	80.129
449.39	74.119
449.60	81.882
449.81	84.970
450.02	85.049
450.23	85.807
450.45	87.368
450.66	87.170
450.87	83.055
451.08	93.069
451.29	90.403
451.50	88.669
451.71	88.235
451.92	82.966
452.13	87.935
452.35	86.761
452.56	86.767
452.77	92.774
452.98	100.000
453.19	86.718
453.40	93.176
453.61	95.570
453.82	98.964
454.03	93.374
454.25	102.323
454.46	94.660
454.67	94.019
454.88	83.299
455.09	91.124
455.30	91.009
455.51	94.299
455.72	96.235
455.93	103.896
456.14	94.761
456.35	86.226
456.56	93.069
456.78	90.618
456.99	92.786
457.20	90.365
457.41	94.035
457.62	86.125
457.83	84.945
458.04	88.413
458.25	88.083
458.46	87.714
458.67	86.952
458.88	96.060
459.09	96.150
459.30	100.333
459.51	99.046
459.73	96.915
459.94	89.961
460.15	93.558
460.36	94.691
460.57	89.109
460.78	90.893
460.99	91.092
461.20	89.496
461.41	87.532
461.62	89.152
461.83	90.451
462.04	93.659
462.25	93.993
462.46	96.273
462.67	91.482
462.88	95.061
463.09	92.883
463.30	86.387
463.51	100.777
463.72	99.063
463.93	97.111
464.15	94.965
464.36	98.504
464.57	92.691
464.78	96.623
464.99	83.078
465.20	91.359
465.41	97.283
465.62	88.889
465.83	96.209
466.04	99.213
466.25	90.627
466.46	97.293
466.67	95.562
466.88	91.168
467.09	91.912
467.30	96.662
467.51	94.389
467.72	100.139
467.93	102.283
468.14	93.269
468.35	97.018
468.56	93.312
468.77	96.426
468.98	97.311
469.19	93.186
469.40	96.301
469.61	89.085
469.82	95.332
470.03	92.454
470.24	95.489
470.45	94.610
470.66	92.714
470.87	97.520
471.08	97.110
471.29	99.882
471.50	93.017
471.71	97.102
471.92	94.072
472.13	90.738
472.34	96.920
472.55	92.006
472.76	99.549
472.97	91.210
473.18	92.946
473.39	94.303
473.60	93.876
473.81	90.664
474.01	93.778
474.22	92.772
474.43	95.215
474.64	94.301
474.85	92.664
475.06	93.028
475.27	96.951
475.48	94.074
475.69	97.430
475.90	95.620
476.11	98.383
476.32	96.063
476.53	102.067
476.74	98.833
476.95	95.966
477.16	93.635
477.37	99.601
477.58	94.859
477.79	97.428
478.00	95.923
478.21	95.029
478.41	95.593
478.62	96.616
478.83	95.915
479.04	95.255
479.25	96.324
479.46	97.439
479.67	98.351
479.88	96.294
480.09	97.411
480.30	100.635
480.51	99.853
480.72	99.137
480.93	94.397
481.14	91.494
481.34	93.510
481.55	95.836
481.76	96.554
481.97	97.482
482.18	94.042
482.39	93.188
482.60	94.052
482.81	100.910
483.02	102.205
483.23	97.171
483.44	98.384
483.65	98.186
483.85	97.622
484.06	94.819
484.27	97.643
484.48	99.656
484.69	102.811
484.90	101.791
485.11	101.941
485.32	100.948
485.53	100.454
485.73	98.066
485.94	98.275
486.15	95.208
486.36	95.181
486.57	94.402
486.78	93.916
486.99	96.835
487.20	93.989
487.41	92.890
487.61	92.294
487.82	96.217
488.03	92.706
488.24	92.627
488.45	94.091
488.66	94.195
488.87	94.398
489.08	97.575
489.28	100.518
489.49	96.325
489.70	94.743
489.91	95.979
490.12	91.130
490.33	93.881
490.54	94.563
490.74	94.998
490.95	95.879
491.16	96.026
491.37	94.153
491.58	90.563
491.79	93.093
492.00	91.639
492.20	94.056
492.41	92.817
492.62	92.964
492.83	94.782
493.04	96.449
493.25	94.082
493.45	94.042
493.66	90.840
493.87	85.779
494.08	81.371
494.29	79.214
494.50	76.554
494.70	70.122
494.91	69.716
495.12	64.425
495.33	59.057
495.54	49.226
495.75	42.104
495.95	35.354
496.16	29.225
496.37	24.369
496.58	19.662
496.79	16.896
496.99	13.640
497.20	10.327
497.41	7.831
497.62	5.881
497.83	4.815
498.04	2.377
498.24	2.351
498.45	3.069
498.66	2.172
498.87	2.286
499.08	1.900
499.28	2.285
499.49	2.091
499.70	1.331
499.91	1.078
500.12	1.318
500.32	0.489
500.53	1.210
500.74	1.375
500.95	1.856
501.15	1.747
501.36	1.624
501.57	2.014
501.78	1.401
501.99	1.042
502.19	1.280
502.40	0.449
502.61	1.917
502.82	0.452
503.02	0.791
503.23	0.779
503.44	1.012
503.65	1.451
503.86	1.386
504.06	1.595
504.27	0.835
504.48	0.975
504.69	1.118
504.89	1.325
505.10	1.937
505.31	1.181
505.52	1.931
505.72	1.680
505.93	2.085
506.14	1.519
506.35	1.626
506.55	0.891
506.76	0.932
506.97	1.837
507.18	0.669
507.38	1.626
507.59	0.732
507.80	0.069
508.01	1.696
508.21	0.634
508.42	0.388
508.63	0.398
508.84	1.604
509.04	-0.017
509.25	0.222
509.46	1.812
509.67	0.670
509.87	1.083
510.08	1.417
510.29	0.349
510.49	0.724
510.70	0.638
510.91	0.902
511.12	0.500
511.32	0.953
511.53	0.792
511.74	1.407
511.94	1.331
512.15	0.349
512.36	1.207
512.57	1.141
512.77	0.724
512.98	0.909
513.19	0.439
513.39	0.686
513.60	1.212
513.81	-0.121
514.01	0.498
514.22	1.566
514.43	0.891
514.64	1.151
514.84	0.698
515.05	0.397
515.26	1.356
515.46	0.753
515.67	0.841
515.88	1.018
516.08	1.017
516.29	1.262
516.50	1.331
516.70	0.660
516.91	0.991
517.12	0.504
517.32	1.511
517.53	1.392
517.74	0.425
517.95	0.743
518.15	1.045
518.36	0.896
518.57	0.430
518.77	0.567
518.98	0.748
519.19	0.756
519.39	0.670
519.60	0.790
519.80	1.410
520.01	0.709
520.22	0.582
520.42	0.791
520.63	0.637
520.84	0.825
521.04	0.720
521.25	0.198
521.46	0.593
521.66	1.047
521.87	0.426
522.08	1.021
522.28	0.741
522.49	0.890
522.70	0.459
522.90	0.505
523.11	0.700
523.31	0.962
523.52	0.609
523.73	0.819
523.93	1.341
524.14	0.262
524.35	0.963
524.55	1.077
524.76	0.482
524.97	1.278
525.17	0.608
525.38	0.989
525.58	0.772
525.79	0.824
526.00	1.101
526.20	0.811
526.41	1.027
526.61	0.284
526.82	0.662
527.03	0.691
527.23	1.351
527.44	0.742
527.64	0.501
527.85	0.767
528.06	0.444
528.26	0.882
528.47	1.023
528.68	0.954
528.88	0.751
529.09	1.087
529.29	1.044
529.50	0.608
529.70	1.115
529.91	0.409
530.12	1.071
530.32	0.895
530.53	0.971
530.73	0.711
530.94	0.427
531.15	1.336
531.35	1.132
531.56	0.303
531.76	1.272
531.97	1.311
532.17	1.238
532.38	0.943
532.59	1.325
532.79	0.908
533.00	1.107
533.20	1.206
533.41	0.695
533.61	0.890
533.82	0.945
534.03	1.045
534.23	0.967
534.44	1.198
534.64	0.845
534.85	1.454
535.05	1.095
535.26	1.008
535.46	1.460
535.67	1.003
535.88	2.038
536.08	1.404
536.29	1.269
536.49	1.368
536.70	1.177
536.90	0.832
537.11	1.218
537.31	1.224
537.52	1.496
537.72	1.854
537.93	1.017
538.13	1.906
538.34	1.737
538.55	1.494
538.75	1.887
538.96	1.793
539.16	1.627
539.37	1.641
539.57	1.419
539.78	2.025
539.98	1.753
540.19	2.012
540.39	2.314
540.60	2.395
540.80	2.346
541.01	2.417
541.21	2.502
541.42	2.557
541.62	2.484
541.83	2.791
542.03	2.846
542.24	2.488
542.44	3.087
542.65	2.902
542.85	3.039
543.06	3.187
543.26	3.488
543.47	3.672
543.67	3.981
543.88	4.830
544.08	5.337
544.29	6.314
544.49	7.656
544.70	8.612
544.90	10.493
545.11	12.476
545.31	14.644
545.52	16.961
545.72	19.604
545.93	22.225
546.13	23.890
546.34	26.303
546.54	30.348
546.75	32.213
546.95	37.198
547.15	40.647
547.36	41.658
547.56	43.560
547.77	47.155
547.97	49.628
548.18	54.223
548.38	59.236
548.59	61.859
548.79	65.459
549.00	69.228
549.20	72.429
549.41	76.847
549.61	77.531
549.81	80.887
550.02	82.614
550.22	86.445
550.43	86.113
550.63	90.462
550.84	91.520
551.04	92.982
551.25	93.280
551.45	95.150
551.65	95.396
551.86	94.437
552.06	96.868
552.27	97.884
552.47	95.689
552.68	96.665
552.88	97.398
553.08	96.177
553.29	96.632
553.49	98.652
553.70	100.018
553.90	102.490
554.11	103.105
554.31	103.358
554.51	103.666
554.72	103.659
554.92	104.959
555.13	104.902
555.33	103.801
555.53	106.625
555.74	106.263
555.94	104.596
556.15	103.818
556.35	100.595
556.56	101.507
556.76	99.740
556.96	100.765
557.17	98.718
557.37	98.328
557.58	98.738
557.78	99.796
557.98	99.048
558.19	97.892
558.39	99.207
558.59	96.138
558.80	96.089
559.00	97.482
559.21	98.639
559.41	96.928
559.61	96.907
559.82	96.141
560.02	97.051
560.23	96.703
560.43	97.750
560.63	96.268
560.84	95.438
561.04	96.656
561.24	99.424
561.45	101.155
561.65	101.100
561.85	100.474
562.06	99.880
562.26	100.834
562.47	100.439
562.67	100.363
562.87	100.726
563.08	98.607
563.28	99.711
563.48	99.160
563.69	96.444
563.89	96.377
564.09	97.790
564.30	96.226
564.50	95.976
564.70	96.686
564.91	96.265
565.11	95.618
565.31	94.013
565.52	93.409
565.72	95.596
565.92	94.847
566.13	93.859
566.33	96.850
566.53	94.891
566.74	96.069
566.94	96.831
567.14	98.389
567.35	97.172
567.55	96.070
567.75	96.784
567.96	98.889
568.16	99.017
568.36	98.529
568.57	97.464
568.77	96.242
568.97	96.573
569.18	95.689
569.38	96.141
569.58	96.091
569.79	95.094
569.99	93.541
570.19	95.184
570.39	98.903
570.60	97.492
570.80	99.985
571.00	100.540
571.21	100.998
571.41	100.083
571.61	100.632
571.82	98.116
572.02	99.830
572.22	101.892
572.42	102.809
572.63	105.938
572.83	106.577
573.03	103.681
573.24	103.722
573.44	101.549
573.64	99.365
573.84	98.366
574.05	97.643
574.25	95.832
574.45	94.638
574.66	95.840
574.86	95.454
575.06	99.230
575.26	100.098
575.47	101.256
575.67	100.637
575.87	100.892
576.07	100.454
576.28	99.035
576.48	96.204
576.68	98.744
576.88	99.820
577.09	101.558
577.29	103.054
577.49	102.052
577.69	101.769
577.90	100.318
578.10	100.375
578.30	97.545
578.50	97.593
578.71	99.563
578.91	101.975
579.11	100.675
579.31	100.795
579.52	101.797
579.72	102.928
579.92	102.093
580.12	103.825
580.33	102.757
580.53	104.520
580.73	102.214
580.93	101.040
581.13	99.599
581.34	96.140
581.54	95.876
581.74	96.858
581.94	96.180
582.15	97.249
582.35	96.640
582.55	95.062
582.75	96.272
582.95	99.762
583.16	99.349
583.36	99.701
583.56	99.449
583.76	99.257
583.96	100.415
584.17	99.959
584.37	100.661
584.57	100.428
584.77	100.474
584.97	99.383
585.18	96.318
585.38	96.412
585.58	95.058
585.78	94.826
585.98	96.731
586.19	96.128
586.39	97.676
586.59	100.482
586.79	99.543
586.99	98.409
587.20	101.371
587.40	100.764
587.60	101.247
587.80	101.112
588.00	101.020
588.20	102.320
588.41	105.082
588.61	106.985
588.81	105.707
589.01	103.031
589.21	100.429
589.41	99.412
589.62	96.444
589.82	93.713
590.02	92.660
590.22	93.010
590.42	92.342
590.62	93.576
590.83	94.589
591.03	96.670
591.23	100.261
591.43	100.902
591.63	102.196
591.83	102.027
592.03	100.249
592.24	99.107
592.44	97.396
592.64	94.688
592.84	93.557
593.04	93.084
593.24	94.537
593.44	97.356
593.65	98.522
593.85	100.040
594.05	101.049
594.25	103.435
594.45	101.848
594.65	98.321
594.85	96.980
595.06	94.686
595.26	94.419
595.46	95.805
595.66	95.722
595.86	96.981
596.06	99.066
596.26	98.362
596.46	97.614
596.66	96.598
596.87	97.147
597.07	97.913
597.27	98.917
597.47	98.361
597.67	99.524
597.87	97.966
598.07	99.331
598.27	99.797
598.47	101.131
598.67	101.282
598.88	100.405
599.08	99.334
599.28	99.002
599.48	98.017
599.68	99.571
599.88	98.716
600.08	99.395
600.28	98.969
600.48	98.298
600.68	96.328
600.88	94.794
601.09	92.527
601.29	91.361
601.49	89.555
601.69	85.593
601.89	83.976
602.09	78.886
602.29	76.503
602.49	73.656
602.69	69.592
602.89	65.692
603.09	61.227
603.29	56.969
603.49	52.824
603.69	47.453
603.90	42.144
604.10	38.165
604.30	33.438
604.50	29.156
604.70	25.296
604.90	20.471
605.10	17.039
605.30	14.259
605.50	11.761
605.70	9.652
605.90	8.660
606.10	6.708
606.30	5.868
606.50	4.349
606.70	3.666
606.90	3.022
607.10	2.267
607.30	2.173
607.50	1.667
607.70	1.343
607.90	1.379
608.10	1.632
608.30	1.521
608.50	1.359
608.70	1.046
608.90	1.113
609.11	0.937
609.31	1.175
609.51	0.921
609.71	1.134
609.91	0.962
610.11	0.947
610.31	1.095
610.51	1.307
610.71	1.287
610.91	1.277
611.11	1.584
611.31	1.568
611.51	1.730
611.71	1.679
611.91	1.358
612.11	1.566
612.31	1.427
612.51	1.368
612.71	1.281
612.91	1.341
613.11	1.356
613.31	0.994
613.51	1.307
613.71	1.212
613.91	1.113
614.11	1.045
614.31	0.916
614.50	1.072
614.70	0.841
614.90	0.817
615.10	0.887
615.30	0.901
615.50	0.896
615.70	0.839
615.90	0.831
616.10	0.863
616.30	0.793
616.50	0.614
616.70	0.773
616.90	0.397
617.10	0.820
617.30	0.574
617.50	0.628
617.70	0.604
617.90	0.370
618.10	0.742
618.30	0.642
618.50	0.749
618.70	0.780
618.90	0.663
619.10	0.724
619.30	0.733
619.49	0.333
619.69	0.695
619.89	0.648
620.09	0.504
620.29	0.861
620.49	0.589
620.69	0.518
620.89	0.568
621.09	0.475
621.29	0.765
621.49	0.544
621.69	0.751
621.89	0.592
622.09	0.552
622.29	0.839
622.48	0.761
622.68	0.439
622.88	0.517
623.08	0.771
623.28	0.436
623.48	0.544
623.68	0.639
623.88	0.523
624.08	0.663
624.28	0.647
624.48	0.521
624.67	0.553
624.87	0.643
625.07	0.847
625.27	0.613
625.47	0.582
625.67	0.427
625.87	0.749
626.07	0.802
626.27	0.519
626.47	0.823
626.66	0.881
626.86	0.557
627.06	0.621
627.26	0.513
627.46	0.552
627.66	0.884
627.86	0.610
628.06	0.380
628.25	0.746
628.45	0.566
628.65	0.520
628.85	0.644
629.05	0.577
629.25	0.656
629.45	0.512
629.65	0.646
629.84	0.627
630.04	0.661
630.24	0.790
630.44	0.735
630.64	0.670
630.84	0.786
631.04	0.981
631.23	0.763
631.43	0.847
631.63	0.832
631.83	0.630
632.03	0.723
632.23	0.640
632.42	0.717
632.62	0.787
632.82	0.895
633.02	0.883
633.22	0.668
633.42	0.908
633.62	0.769
633.81	0.702
634.01	0.695
634.21	0.859
634.41	0.894
634.61	0.742
634.80	0.875
635.00	0.880
635.20	0.730
635.40	0.960
635.60	0.810
635.80	0.912
635.99	1.075
636.19	1.153
636.39	0.847
636.59	0.989
636.79	1.099
636.98	0.982
637.18	1.028
637.38	0.955
637.58	1.054
637.78	1.037
637.97	1.031
638.17	1.176
638.37	1.105
638.57	1.036
638.77	1.148
638.96	1.212
639.16	1.176
639.36	1.105
639.56	1.216
639.76	1.339
639.95	1.375
640.15	1.206
640.35	1.281
640.55	1.153
640.75	1.202
640.94	1.511
641.14	1.308
641.34	1.429
641.54	1.467
641.73	1.579
641.93	1.740
642.13	2.255
642.33	2.415
642.53	2.614
642.72	3.199
642.92	3.926
643.12	4.770
643.32	5.932
643.51	6.599
643.71	8.099
643.91	9.527
644.11	10.992
644.30	12.479
644.50	13.873
644.70	15.544
644.90	17.568
645.09	19.068
645.29	21.094
645.49	23.176
645.69	25.115
645.88	27.977
646.08	30.380
646.28	33.414
646.48	36.540
646.67	39.106
646.87	42.280
647.07	45.886
647.26	48.075
647.46	50.398
647.66	53.147
647.86	57.904
648.05	61.459
648.25	65.778
648.45	69.389
648.65	74.777
648.84	78.438
649.04	81.430
649.24	84.721
649.43	84.473
649.63	86.180
649.83	87.129
650.03	87.345
650.22	88.257
650.42	91.035
650.62	93.515
650.81	92.600
651.01	94.468
651.21	93.699
651.40	95.502
651.60	94.300
651.80	94.884
652.00	95.667
652.19	95.322
652.39	97.344
652.59	96.411
652.78	96.631
652.98	95.428
653.18	95.696
653.37	95.471
653.57	96.921
653.77	98.615
653.96	101.176
654.16	103.451
654.36	103.088
654.55	99.790
654.75	97.827
654.95	95.523
655.14	94.805
655.34	96.409
655.54	96.120
655.73	94.788
655.93	95.868
656.13	95.435
656.32	98.346
656.52	99.406
656.72	99.551
656.91	99.317
657.11	98.495
657.31	98.637
657.50	96.336
657.70	97.966
657.90	99.030
658.09	99.013
658.29	98.983
658.49	98.231
658.68	98.885
658.88	99.134
659.07	99.683
659.27	100.450
659.47	100.245
659.66	102.565
659.86	102.345
660.06	104.270
660.25	101.908
660.45	102.717
660.64	103.365
660.84	101.504
661.04	102.338
661.23	101.238
661.43	101.588
661.63	102.294
661.82	100.373
662.02	100.614
662.21	99.716
662.41	100.239
662.61	98.436
662.80	97.233
663.00	95.958
663.19	96.021
663.39	95.435
663.59	96.453
663.78	98.605
663.98	97.597
664.17	100.183
664.37	101.688
664.57	99.267
664.76	98.448
664.96	95.951
665.15	93.211
665.35	92.551
665.55	92.192
665.74	91.562
665.94	92.808
666.13	92.755
666.33	92.823
666.53	94.075
666.72	96.470
666.92	97.878
667.11	98.942
667.31	97.201
667.50	95.665
667.70	95.086
667.90	96.148
668.09	96.454
668.29	96.631
668.48	98.930
668.68	98.955
668.87	100.862
669.07	100.282
669.26	99.371
669.46	100.898
669.66	102.001
669.85	102.528
670.05	102.423
670.24	101.181
670.44	101.186
670.63	102.383
670.83	100.638
671.02	98.354
671.22	96.168
671.42	96.097
671.61	95.321
671.81	95.427
672.00	95.714
672.20	93.528
672.39	93.390
672.59	92.916
672.78	94.645
672.98	94.758
673.17	95.214
673.37	93.886
673.56	93.876
673.76	95.828
673.95	99.263
674.15	98.929
674.34	99.759
674.54	98.815
674.73	95.166
674.93	93.495
675.13	92.596
675.32	92.794
675.52	94.419
675.71	95.352
675.91	97.744
676.10	98.031
676.30	96.641
676.49	95.494
676.69	94.931
676.88	94.664
677.08	94.240
677.27	93.519
677.47	94.034
677.66	94.749
677.86	96.274
678.05	97.000
678.24	96.784
678.44	95.901
678.63	96.217
678.83	95.805
679.02	97.219
679.22	98.041
679.41	99.984
679.61	103.159
679.80	106.327
680.00	105.159
680.19	105.532
680.39	104.777
680.58	101.696
680.78	98.957
680.97	98.919
681.17	97.178
681.36	98.209
681.56	97.545
681.75	98.769
681.94	99.223
682.14	98.513
682.33	97.843
682.53	97.963
682.72	96.752
682.92	97.888
683.11	97.945
683.31	95.708
683.50	94.660
683.69	95.206
683.89	96.672
684.08	96.620
684.28	98.041
684.47	98.311
684.67	98.521
684.86	97.490
685.06	95.428
685.25	94.710
685.44	94.382
685.64	94.657
685.83	94.693
686.03	96.335
686.22	97.211
686.42	97.810
686.61	99.055
686.80	99.837
687.00	99.838
687.19	102.339
687.39	103.081
687.58	103.058
687.77	102.325
687.97	100.700
688.16	100.195
688.36	100.616
688.55	101.631
688.74	100.872
688.94	101.459
689.13	100.897
689.33	99.385
689.52	99.863
689.71	99.136
689.91	98.246
690.10	97.215
690.30	94.085
690.49	93.795
690.68	93.362
690.88	92.840
691.07	95.215
691.27	95.531
691.46	96.951
691.65	99.130
691.85	99.952
692.04	100.527
692.23	99.523
692.43	99.168
692.62	96.042
692.82	94.353
693.01	91.441
693.20	90.219
693.40	90.830
693.59	91.502
693.78	92.938
693.98	93.546
694.17	94.181
694.36	93.849
694.56	95.055
694.75	95.337
694.94	92.591
695.14	92.901
695.33	91.237
695.53	93.398
695.72	94.049
695.91	95.827
696.11	95.810
696.30	95.887
696.49	97.006
696.69	96.696
696.88	97.241
697.07	96.572
697.27	95.150
697.46	94.608
697.65	93.356
697.85	92.598
698.04	92.724
698.23	93.883
698.43	92.863
698.62	92.932
698.81	89.523
699.01	88.157
699.20	85.471
699.39	85.733
699.58	85.288
699.78	84.902
699.97	81.802
700.16	79.652
700.36	76.728
700.55	74.146
700.74	70.539
700.94	67.693
701.13	64.293
701.32	59.519
701.52	55.784
701.71	52.178
701.90	49.289
702.09	46.646
702.29	43.719
702.48	41.523
702.67	38.362
702.87	35.566
703.06	30.980
703.25	27.497
703.44	24.804
703.64	21.353
703.83	19.184
704.02	17.272
704.22	15.159
704.41	12.901
704.60	10.775
704.79	8.966
704.99	7.633
705.18	6.474
705.37	5.213
705.56	4.748
705.76	3.770
705.95	3.036
706.14	2.509
706.33	2.218
706.53	1.929
706.72	1.701
706.91	1.472
707.11	1.559
707.30	1.338
707.49	1.508
707.68	1.117
707.88	0.898
708.07	0.943
708.26	0.866
708.45	1.012
708.64	0.813
708.84	0.711
709.03	0.942
709.22	1.009
709.41	0.567
709.61	0.518
709.80	0.595
709.99	0.655
710.18	0.886
710.38	0.557
710.57	0.796
710.76	0.509
710.95	0.471
711.14	0.644
711.34	0.681
711.53	0.469
711.72	0.612
711.91	0.345
712.11	0.593
712.30	0.601
712.49	0.533
712.68	0.634
712.87	0.415
713.07	0.465
713.26	0.411
713.45	0.438
713.64	0.464
713.83	0.512
714.03	0.605
714.22	0.421
714.41	0.437
714.60	0.375
714.79	0.315
714.99	0.435
715.18	0.332
715.37	0.562
715.56	0.426
715.75	0.612
715.94	0.479
716.14	0.391
716.33	0.225
716.52	0.267
716.71	0.375
716.90	0.494
717.10	0.541
717.29	0.550
717.48	0.336
717.67	0.406
717.86	0.447
718.05	0.229
718.24	0.269
718.44	0.244
718.63	0.124
718.82	0.696
719.01	0.204
719.20	0.244
719.39	0.262
719.59	0.343
719.78	0.255
719.97	0.250
720.16	0.314
720.35	0.309
720.54	0.260
720.73	0.131
720.93	0.505
721.12	0.302
721.31	0.512
721.50	0.341
721.69	0.341
721.88	0.230
722.07	0.255
722.27	0.159
722.46	0.137
722.65	0.166
722.84	0.143
723.03	0.364
723.22	0.307
723.41	0.339
723.60	0.328
723.79	0.372
723.99	0.286
724.18	0.233
724.37	0.094
724.56	0.284
724.75	0.322
724.94	0.160
725.13	0.179
725.32	0.019
725.51	0.204
725.71	0.132
725.90	0.081
726.09	0.255
726.28	0.161
726.47	0.138
726.66	0.278
726.85	0.432
727.04	0.372
727.23	0.340
727.42	0.274
727.61	0.024
727.81	0.375
728.00	0.303
728.19	0.096
728.38	0.052
728.57	0.349
728.76	0.048
728.95	0.473
729.14	0.241
729.33	0.245
729.52	0.261
729.71	0.115
729.90	0.146
730.09	0.015
730.28	0.196
730.48	0.076
730.67	0.091
730.86	0.169
731.05	0.016
731.24	0.106
731.43	0.135
731.62	0.265
731.81	0.435
732.00	0.286
732.19	0.363
732.38	0.193
732.57	0.339
732.76	0.376
732.95	0.166
733.14	0.188
733.33	0.269
733.52	0.364
733.71	0.241
733.90	0.157
734.09	0.026
734.28	-0.108
734.47	0.203
734.66	0.140
734.85	-0.094
735.04	0.064
735.23	0.230
735.42	0.272
735.61	0.113
735.81	0.197
736.00	0.251
736.19	0.086
736.38	0.187
736.57	0.000
736.76	0.225
736.95	0.077
737.14	0.155
737.33	0.532
737.52	0.144
737.71	0.217
737.90	0.268
738.09	0.101
738.28	0.190
738.47	-0.141
738.66	0.068
738.85	-0.128
739.04	-0.140
739.22	0.076
739.41	0.240
739.60	0.110
739.79	0.093
739.98	0.046
740.17	0.091
740.36	0.252
740.55	0.150
740.74	0.148
740.93	0.296
741.12	0.084
741.31	0.051
741.50	0.029
741.69	0.171
741.88	0.215
742.07	0.029
742.26	0.229
742.45	0.161
742.64	0.115
742.83	0.553
743.02	0.106
743.21	0.059
743.40	0.395
743.59	0.262
743.78	0.107
743.97	0.116
744.16	0.219
744.34	0.274
744.53	0.415
744.72	0.227
744.91	0.224
745.10	0.285
745.29	0.238
745.48	0.071
745.67	0.247
745.86	0.147
746.05	0.114
746.24	0.114
746.43	0.152
746.62	0.203
746.81	0.045
747.00	0.104
747.18	0.299
747.37	0.122
747.56	0.288
747.75	0.232
747.94	0.271
748.13	0.279
748.32	0.260
748.51	0.345
748.70	0.104
748.89	0.168
749.08	0.055
749.26	-0.014
749.45	0.137
749.64	0.174
749.83	0.000
750.02	0.359
750.21	-0.217
750.40	0.306
750.59	-0.015
750.78	0.319
750.96	0.301
751.15	0.510
751.34	-0.097
751.53	0.219
751.72	0.181
751.91	0.044
752.10	0.215
752.29	0.283
752.47	-0.007
752.66	0.487
752.85	0.169
753.04	0.071
753.23	0.482
753.42	0.064
753.61	0.319
753.80	0.297
753.98	0.454
754.17	0.427
754.36	0.235
754.55	-0.083
754.74	0.181
754.93	-0.383
755.12	-0.026
755.30	-0.152
755.49	0.064
755.68	0.397
755.87	0.089
756.06	0.358
756.25	0.106
756.43	0.062
756.62	0.320
756.81	0.354
757.00	0.329
757.19	0.142
757.38	0.242
757.56	0.177
757.75	-0.131
757.94	0.194
758.13	0.580
758.32	0.769
758.51	0.286
758.69	-0.010
758.88	0.308
759.07	0.353
759.26	0.010
759.45	-0.155
759.63	0.568
759.82	0.084
760.01	0.373
760.20	0.065
760.39	0.744
760.57	0.122
760.76	0.111
760.95	0.621
761.14	0.169
761.33	-0.240
761.51	0.776
761.70	0.220
761.89	0.069
762.08	0.752
762.27	0.549
762.45	0.082
762.64	-0.095
762.83	0.240
763.02	0.025
763.21	0.441
763.39	0.483
763.58	-0.281
763.77	0.652
763.96	0.052
764.14	0.904
764.33	0.247
764.52	0.371
764.71	0.107
764.89	0.253
765.08	0.247
765.27	-0.374
765.46	-0.093
765.65	0.517
765.83	-0.176
766.02	0.446
766.21	0.416
766.40	-0.094
766.58	0.123
766.77	0.413
766.96	0.261
767.15	0.223
767.33	0.229
767.52	1.019
767.71	0.344
767.90	0.047
768.08	0.332
768.27	0.224
768.46	0.161
768.64	-0.130
768.83	-0.049
769.02	0.440
769.21	0.185
769.39	0.238
769.58	0.188
769.77	0.617
769.96	0.972
770.14	0.427
770.33	0.591
770.52	0.711
770.70	0.409
770.89	0.343
771.08	-0.460
771.27	0.722
771.45	0.154
771.64	0.329
771.83	0.645
772.01	0.420
772.20	1.178
772.39	0.946
772.57	0.326
772.76	-0.494
772.95	0.730
773.14	0.000
773.32	-0.259
773.51	0.019
773.70	0.075
773.88	0.676
774.07	0.272
774.26	0.759
774.44	0.440
774.63	0.421
774.82	0.195
775.00	0.716
775.19	0.760
775.38	0.245
775.56	-0.324
775.75	0.864
775.94	-0.374
776.12	0.744
776.31	-0.100
776.50	1.517
776.68	0.970
776.87	1.529
777.06	-0.183
777.24	0.752
777.43	1.130
777.62	0.739
777.80	-0.798
777.99	-0.145
778.18	1.418
778.36	0.753
778.55	0.476
778.74	0.557
778.92	-0.187
779.11	0.041
779.29	0.020
779.48	0.962
779.67	-0.574
779.85	0.363
780.04	0.307
780.23	1.231
780.41	1.239
780.60	-0.244
780.79	0.179
780.97	-0.381
781.16	0.374
781.34	0.020
781.53	0.916
781.72	0.959
781.90	0.721
782.09	1.184
782.28	0.447
782.46	0.961
782.65	0.313
782.83	0.383
783.02	-0.321
783.21	0.059
783.39	1.725
783.58	-0.135
783.76	0.516
783.95	-0.134
784.14	0.149
784.32	-0.424
784.51	0.508
784.69	0.701
784.88	0.527
785.06	0.235
785.25	-0.427
785.44	0.478
785.62	0.211
785.81	0.344
785.99	-0.235
786.18	0.092
786.37	-0.093
786.55	0.631
786.74	-0.038
786.92	0.000
787.11	0.198
787.29	-0.315
787.48	-0.696
787.67	0.394
787.85	0.234
788.04	0.986
788.22	0.597
788.41	0.187
788.59	0.677
788.78	0.207
788.96	0.019
789.15	-0.501
789.34	-0.172
789.52	0.405
789.71	-0.076
789.89	0.076
790.08	0.220
790.26	0.126
790.45	-0.177
790.63	-0.196
790.82	0.035
791.00	0.507
791.19	0.159
791.38	0.018
791.56	0.303
791.75	0.071
791.93	0.140
792.12	0.277
792.30	-0.488
792.49	-0.446
792.67	0.000
792.86	-0.134
793.04	0.661
793.23	-0.173
793.41	-0.622
793.60	0.763
793.78	0.708
793.97	-0.261
794.15	0.817
794.34	1.098
794.52	0.849
794.71	0.085
794.89	-0.050
795.08	0.081
795.26	0.406
795.45	0.283
795.63	0.047
795.82	0.716
796.00	0.030
796.19	0.310
796.37	-0.239
796.56	0.030
796.74	0.508
796.93	0.773
797.11	-0.305
797.30	-0.014
797.48	0.145
797.67	0.532
797.85	0.073
798.04	1.252
798.22	-0.030
798.41	0.275
798.59	0.415
798.77	0.092
798.96	0.015
799.14	0.000
799.33	0.484
799.51	0.196
799.70	0.269
799.88	0.257
800.07	-0.209
800.25	0.133
800.44	-0.088
800.62	-0.118
800.80	0.263
800.99	0.237
801.17	-0.370
801.36	0.237
801.54	-0.059
801.73	-0.191
801.91	0.219
802.10	-0.174
802.28	0.655
802.46	0.719
802.65	-0.259
802.83	0.520
803.02	0.471
803.20	0.299
803.39	-0.116
803.57	0.209
803.75	-0.075
803.94	0.030
804.12	0.389
804.31	0.344
804.49	0.304
804.67	0.607
804.86	0.164
805.04	-0.476
805.23	0.669
805.41	0.436
805.59	0.341
805.78	-0.543
805.96	-0.016
806.15	0.169
806.33	0.093
806.51	-0.551
806.70	0.152
806.88	0.152
807.07	0.309
807.25	0.300
807.43	0.301
807.62	1.164
807.80	-0.111
807.99	0.360
808.17	-0.139
808.35	-0.567
808.54	0.685
808.72	1.089
808.90	0.346
809.09	-0.090
809.27	0.075
809.46	0.264
809.64	0.076
809.82	0.185
810.01	-0.278
810.19	0.368
810.37	-0.075
810.56	0.194
810.74	0.240
810.92	-0.390
811.11	-0.195
811.29	0.000
811.48	-0.419
811.66	0.661
811.84	0.322
812.03	0.492
812.21	0.213
812.39	0.291
812.58	-0.164
812.76	-0.132
812.94	0.338
813.13	0.144
813.31	0.437
813.49	0.284
813.68	1.185
813.86	0.384
814.04	0.462
814.23	0.547
814.41	0.251
814.59	-0.252
814.78	-0.133
814.96	0.558
815.14	0.962
815.33	0.410
815.51	-0.524
815.69	0.358
815.87	0.432
816.06	-0.081
816.24	-0.760
816.42	0.753
816.61	0.121
816.79	-0.017
816.97	-0.671
817.16	0.347
817.34	1.105
817.52	0.209
817.70	0.506
817.89	-0.223
818.07	0.479
818.25	0.661
818.44	-0.054
818.62	0.071
818.80	-0.354
818.98	0.853
819.17	0.109
819.35	0.056
819.53	0.534
819.72	0.226
819.90	1.519
820.08	-0.367
820.26	1.042
820.45	0.000
820.63	0.119
820.81	-0.536
820.99	0.281
821.18	0.394
821.36	1.330
821.54	-0.385
821.73	0.349
821.91	0.500
822.09	0.139
822.27	-0.040
822.46	0.924
822.64	1.154
822.82	0.536
823.00	-0.127
823.19	1.580
823.37	-0.108
823.55	0.797
823.73	0.156
823.91	-0.182
824.10	-0.689
824.28	0.023
824.46	0.610
824.64	0.786
824.83	0.172
825.01	0.597
825.19	-0.283
825.37	-0.265
825.56	0.969
825.74	-0.462
825.92	0.090
826.10	-1.072
826.28	-0.371
826.47	0.766
826.65	0.108
826.83	-0.044
827.01	0.501
827.19	0.065
827.38	0.465
827.56	0.546
827.74	1.083
827.92	0.862
828.10	1.355
828.29	-1.109
828.47	1.066
828.65	-0.075
828.83	0.986
829.01	0.000
829.20	0.662
829.38	0.336
829.56	0.905
829.74	-0.026
829.92	1.088
830.10	0.156
830.29	0.499
830.47	-0.415
830.65	0.851
830.83	0.927
831.01	0.103
831.20	0.989
831.38	-0.026
831.56	0.025
831.74	-0.747
831.92	0.309
832.10	0.682
832.29	-0.270
832.47	0.511
832.65	0.890
832.83	-0.312
833.01	0.278
833.19	0.764
833.37	1.188
833.56	0.504
833.74	0.501
833.92	1.000
834.10	1.276
834.28	2.570
834.46	-0.195
834.64	0.663
834.83	0.943
835.01	0.931
835.19	-0.138
835.37	0.055
835.55	-0.330
835.73	0.601
835.91	0.194
836.09	1.122
836.28	1.866
836.46	1.016
836.64	-0.626
836.82	0.056
837.00	0.056
837.18	-0.402
837.36	0.207
837.54	1.629
837.72	1.198
837.91	-0.418
838.09	-0.218
838.27	0.157
838.45	0.919
838.63	1.655
838.81	-0.197
838.99	-0.619
839.17	1.207
839.35	1.611
839.53	0.846
839.72	0.173
839.90	0.652
840.08	1.171
840.26	1.016
840.44	-1.477
840.62	-0.690
840.80	0.398
840.98	0.410
841.16	1.933
841.34	0.262
841.52	-0.371
841.70	0.965
841.89	0.361
842.07	-0.720
842.25	1.378
842.43	1.729
842.61	0.131
842.79	-0.310
842.97	0.714
843.15	1.499
843.33	0.034
843.51	0.964
843.69	1.007
843.87	-0.694
844.05	1.420
844.23	1.718
844.41	0.915
844.59	1.348
844.77	-0.226
844.95	0.602
845.13	0.653
845.31	1.191
845.50	1.551
845.68	0.545
845.86	-0.349
846.04	-0.306
846.22	-0.291
846.40	1.511
846.58	0.734
846.76	1.119
846.94	1.820
847.12	0.924
847.30	0.485
847.48	1.471
847.66	1.459
847.84	0.151
848.02	1.262
848.20	1.700
848.38	3.614
848.56	2.437
848.74	-0.039
848.92	1.034
849.10	1.256
849.28	1.263
849.46	0.369
849.64	2.066
849.82	1.636
850.00	0.541
850.18	-0.829
850.36	0.649
850.54	1.637
850.72	2.046
850.90	2.241
851.08	1.575
851.26	1.331
851.44	3.477
851.62	1.181
851.80	2.608
851.98	2.670
852.16	2.648
852.34	1.857
852.52	3.040
852.70	1.409
852.87	2.961
853.05	0.696
853.23	2.400
853.41	1.153
853.59	1.681
853.77	2.450
853.95	2.502
854.13	1.826
854.31	1.956
854.49	1.024
854.67	0.781
854.85	1.633
855.03	3.667
855.21	1.578
855.39	1.195
855.57	2.360
855.75	2.635
855.93	3.072
856.11	-0.467
856.28	2.858
856.46	2.711
856.64	1.749
856.82	3.677
857.00	2.357
857.18	1.352
857.36	-0.080
857.54	2.438
857.72	3.584
857.90	3.374
858.08	3.352
858.26	2.710
858.44	4.444
858.61	3.395
858.79	2.679
858.97	3.688
859.15	3.786
859.33	4.218
859.51	3.930
859.69	5.666
859.87	6.514
860.05	6.488
860.23	7.943
860.40	8.924
860.58	6.798
860.76	9.097
860.94	9.820
861.12	10.112
861.30	9.992
861.48	9.050
861.66	11.069
861.84	10.809
862.01	12.350
862.19	12.642
862.37	11.452
862.55	12.457
862.73	12.724
862.91	14.637
863.09	16.037
863.27	15.128
863.44	14.760
863.62	16.214
863.80	15.652
863.98	15.746
864.16	14.788
864.34	13.851
864.52	15.924
864.69	15.532
864.87	16.612
865.05	17.754
865.23	18.294
865.41	18.810
865.59	20.683
865.76	19.316
865.94	21.194
866.12	21.362
866.30	23.931
866.48	22.197
866.66	23.862
866.83	24.231
867.01	24.831
867.19	26.542
867.37	26.518
867.55	27.307
867.73	25.720
867.90	29.440
868.08	29.840
868.26	27.679
868.44	30.099
868.62	30.662
868.79	31.587
868.97	33.723
869.15	32.534
869.33	36.401
869.51	34.196
869.69	33.510
869.86	35.777
870.04	33.138
870.22	34.747
870.40	33.928
870.57	33.484
870.75	34.009
870.93	30.589
871.11	31.405
871.29	30.386
871.46	27.285
871.64	29.346
871.82	27.491
872.00	27.866
872.18	27.457
872.35	27.266
872.53	29.016
872.71	28.140
872.89	27.825
873.06	30.260
873.24	29.707
873.42	30.192
873.60	31.641
873.77	33.480
873.95	32.556
874.13	32.177
874.31	35.670
874.49	35.965
874.66	36.114
874.84	37.245
875.02	36.682
875.20	41.526
875.37	38.283
875.55	38.267
875.73	39.354
875.91	38.435
876.08	38.250
876.26	39.242
876.44	40.333
876.61	39.083
876.79	38.451
876.97	34.399
877.15	33.595
877.32	33.645
877.50	31.117
877.68	28.332
877.86	31.215
878.03	29.986
878.21	29.764
878.39	27.119
878.56	28.444
878.74	28.200
878.92	29.833
879.10	29.807
879.27	26.388
879.45	25.649
879.63	27.758
879.80	27.888
879.98	30.445
880.16	28.976
880.34	28.455
880.51	28.954
880.69	30.619
880.87	29.826
881.04	27.752
881.22	28.963
881.40	29.469
881.57	28.486
881.75	28.004
881.93	30.075
882.10	29.464
882.28	29.198
882.46	28.018
882.63	30.119
882.81	29.584
882.99	29.817
883.16	28.181
883.34	28.170
883.52	28.277
883.69	25.932
883.87	27.955
884.05	26.764
884.22	24.362
884.40	25.815
884.58	24.518
884.75	25.264
884.93	26.386
885.11	24.193
885.28	22.930
885.46	24.096
885.64	21.890
885.81	21.053
885.99	20.338
886.17	19.776
886.34	19.724
886.52	17.814
886.70	17.649
886.87	15.967
887.05	13.472
887.22	14.974
887.40	12.170
887.58	11.576
887.75	11.669
887.93	12.954
888.11	10.370
888.28	12.102
888.46	10.197
888.63	8.919
888.81	9.732
888.99	9.677
889.16	9.897
889.34	10.981
889.51	9.233
889.69	10.709
889.87	9.720
890.04	9.548
890.22	10.407
890.39	10.886
890.57	10.155
890.75	11.104
890.92	12.671
891.10	12.593
891.27	13.725
891.45	12.859
891.63	14.230
891.80	13.760
891.98	14.528
892.15	14.501
892.33	15.347
892.51	15.312
892.68	15.636
892.86	15.853
893.03	17.135
893.21	17.698
893.38	18.548
893.56	17.212
893.74	19.496
893.91	20.377
894.09	21.096
894.26	19.403
894.44	21.869
894.61	21.887
894.79	22.997
894.96	23.604
895.14	22.012
895.32	25.206
895.49	25.319
895.67	23.420
895.84	23.174
896.02	25.175
896.19	25.529
896.37	22.918
896.54	24.414
896.72	27.046
896.89	24.452
897.07	25.008
897.25	25.488
897.42	24.763
897.60	25.609
897.77	26.487
897.95	25.861
898.12	25.995
898.30	22.988
898.47	26.251
898.65	26.589
898.82	26.612
899.00	26.145
899.17	24.351
899.35	24.843
899.52	23.317
899.70	23.618
899.87	21.703
900.05	22.483
900.22	22.625
900.40	20.949
900.57	20.704
900.75	23.726
900.92	21.226
901.10	20.947
901.27	20.794
901.45	20.943
901.62	19.626
901.80	19.014
901.97	18.236
902.15	17.812
902.32	18.998
902.50	20.207
902.67	19.648
902.85	18.423
903.02	19.110
903.20	18.984
903.37	19.871
903.54	19.485
903.72	18.765
903.89	21.572
904.07	21.607
904.24	23.974
904.42	24.784
904.59	24.216
904.77	24.337
904.94	23.590
905.12	25.360
905.29	25.326
905.47	26.302
905.64	24.908
905.81	27.707
905.99	30.728
906.16	29.517
906.34	32.816
906.51	33.131
906.69	33.347
906.86	34.015
907.03	37.394
907.21	40.065
907.38	41.340
907.56	41.975
907.73	40.698
907.91	45.585
908.08	44.945
908.25	45.265
908.43	47.029
908.60	49.441
908.78	50.545
908.95	51.574
909.13	52.460
909.30	55.059
909.47	54.335
909.65	55.523
909.82	51.798
910.00	58.102
910.17	55.583
910.34	58.447
910.52	58.905
910.69	58.755
910.87	57.737
911.04	59.983
911.21	62.133
911.39	60.733
911.56	64.283
911.73	62.564
911.91	65.711
912.08	65.683
912.26	63.543
912.43	66.186
912.60	67.838
912.78	67.873
912.95	72.212
913.13	69.158
913.30	68.959
913.47	75.374
913.65	69.948
913.82	67.487
913.99	66.761
914.17	62.234
914.34	62.288
914.51	63.677
914.69	60.834
914.86	64.449
915.03	63.163
915.21	60.109
915.38	60.359
915.56	63.218
915.73	65.364
915.90	59.328
916.08	63.719
916.25	59.799
916.42	60.239
916.60	60.611
916.77	61.922
916.94	63.207
917.12	60.152
917.29	61.392
917.46	66.752
917.64	63.478
917.81	66.098
917.98	65.623
918.16	67.258
918.33	65.176
918.50	67.022
918.67	68.715
918.85	72.980
919.02	67.876
919.19	70.968
919.37	68.297
919.54	71.622
919.71	66.125
919.89	67.137
920.06	67.617
920.23	63.008
920.41	65.134
920.58	70.902
920.75	68.195
920.92	67.905
921.10	68.563
921.27	68.071
921.44	72.918
921.62	76.311
921.79	73.984
921.96	75.453
922.13	75.410
922.31	72.954
922.48	75.534
922.65	73.684
922.82	71.956
923.00	68.871
923.17	72.893
923.34	75.305
923.52	71.025
923.69	71.746
923.86	63.852
924.03	73.026
924.21	68.036
924.38	67.636
924.55	70.220
924.72	68.494
924.90	71.873
925.07	72.198
925.24	72.631
925.41	75.937
925.59	70.721
925.76	67.818
925.93	71.471
926.10	72.210
926.28	71.203
926.45	65.957
926.62	65.285
926.79	65.368
926.96	66.081
927.14	65.095
927.31	67.105
927.48	61.835
927.65	65.517
927.83	60.883
928.00	62.907
928.17	62.751
928.34	62.457
928.51	63.844
928.69	62.544
928.86	64.465
929.03	64.830
929.20	65.085
929.37	64.561
929.55	68.760
929.72	67.136
929.89	70.487
930.06	71.299
930.23	65.615
930.41	69.667
930.58	70.478
930.75	69.717
930.92	72.388
931.09	78.531
931.27	69.256
931.44	70.603
931.61	72.010
931.78	71.821
931.95	72.890
932.12	77.193
932.30	73.491
932.47	74.674
932.64	72.645
932.81	74.606
932.98	76.586
933.16	78.901
933.33	73.493
933.50	78.376
933.67	74.663
933.84	78.029
934.01	74.055
934.18	77.615
934.36	80.798
934.53	72.401
934.70	75.146
934.87	71.469
935.04	73.037
935.21	70.766
935.38	67.040
935.56	71.372
935.73	66.368
935.90	66.957
936.07	66.122
936.24	67.728
936.41	64.351
936.58	62.839
936.76	67.656
936.93	68.786
937.10	69.710
937.27	69.095
937.44	64.355
937.61	70.869
937.78	66.706
937.95	66.082
938.13	60.286
938.30	64.176
938.47	54.294
938.64	60.787
938.81	61.859
938.98	62.091
939.15	56.556
939.32	58.244
939.49	50.215
939.66	55.531
939.84	56.234
940.01	56.956
940.18	53.152
940.35	50.425
940.52	49.314
940.69	53.057
940.86	52.207
941.03	48.510
941.20	40.639
941.37	48.284
941.54	52.563
941.71	52.184
941.89	51.916
942.06	47.625
942.23	50.185
942.40	54.253
942.57	48.939
942.74	54.486
942.91	43.583
943.08	54.949
943.25	54.098
943.42	61.376
943.59	65.269
943.76	56.410
943.93	59.754
944.10	59.392
944.27	58.579
944.44	55.297
944.61	59.972
944.79	54.930
944.96	63.150
945.13	59.322
945.30	65.041
945.47	67.260
945.64	60.870
945.81	61.357
945.98	61.379
946.15	65.684
946.32	63.700
946.49	60.755
946.66	69.278
946.83	60.165
947.00	68.581
947.17	66.617
947.34	54.876
947.51	57.121
947.68	58.517
947.85	64.114
948.02	58.214
948.19	61.526
948.36	71.912
948.53	61.592
948.70	65.412
948.87	67.980
949.04	56.380
949.21	63.201
949.38	60.034
949.55	53.590
949.72	60.461
949.89	52.500
950.06	53.439
950.23	52.357
950.40	53.234
950.57	51.892
950.74	54.064
950.91	42.279
951.08	47.909
951.25	48.479
951.42	53.686
951.59	48.282
951.76	42.828
951.93	42.446
952.10	44.384
952.27	41.886
952.44	37.143
952.61	39.785
952.77	47.059
952.94	41.463
953.11	42.095
953.28	42.264
953.45	42.683
953.62	32.668
953.79	38.519
953.96	30.273
954.13	33.908
954.30	36.290
954.47	32.920
954.64	34.038
954.81	37.022
954.98	29.282
955.15	36.600
955.32	28.998
955.49	39.139
955.65	37.000
955.82	37.882
955.99	31.016
956.16	32.347
956.33	34.394
956.50	31.323
956.67	19.115
956.84	18.727
957.01	30.957
957.18	32.406
957.35	27.419
957.52	36.546
957.68	29.464
957.85	35.106
958.02	20.802
958.19	38.780
958.36	40.758
958.53	47.135
958.70	37.687
958.87	43.400
959.04	34.103
959.21	36.784
959.37	56.623
959.54	41.839
959.71	45.261
959.88	50.976
960.05	45.368
960.22	45.146
960.39	35.749
960.56	43.202
960.72	49.272
960.89	38.429
961.06	41.458
961.23	40.590
961.40	35.326
961.57	37.269
961.74	49.605
961.90	46.061
962.07	53.586
962.24	49.240
962.41	54.525
962.58	48.718
962.75	48.745
962.92	50.545
963.08	60.449
963.25	52.495
963.42	57.794
963.59	53.178
963.76	58.014
963.93	55.275
964.10	63.721
964.26	51.464
964.43	62.356
964.60	62.588
964.77	64.583
964.94	62.500
965.10	59.091
965.27	53.089
965.44	72.893
965.61	67.663
965.78	65.455
965.95	58.234
966.11	69.355
966.28	75.900
966.45	60.497
966.62	54.567
966.79	72.751
966.95	64.253
967.12	67.568
967.29	67.574
967.46	69.910
967.63	73.191
967.79	77.440
967.96	76.991
968.13	70.175
968.30	63.976
968.47	64.375
968.63	79.531
968.80	65.731
968.97	76.082
969.14	78.812
969.31	74.145
969.47	64.122
969.64	61.723
969.81	67.442
969.98	80.392
970.14	67.245
970.31	68.043
970.48	61.161
970.65	79.059
970.81	71.354
970.98	61.670
971.15	59.958
971.32	57.778
971.48	58.242
971.65	71.968
971.82	55.756
971.99	66.138
972.15	74.822
972.32	68.075
972.49	70.149
972.66	68.080
972.82	62.528
972.99	66.588
973.16	61.966
973.33	65.640
973.49	63.476
973.66	56.349
973.83	65.561
974.00	69.820
974.16	69.773
974.33	71.229
974.50	78.019
974.67	77.037
974.83	83.535
975.00	72.249
975.17	83.678
975.33	72.196
975.50	82.796
975.67	74.885
975.84	67.521
976.00	78.824
976.17	71.529
976.34	66.332
976.50	87.017
976.67	79.128
976.84	82.653
977.00	76.359
977.17	97.183
977.34	87.321
977.50	85.791
977.67	79.909
977.84	81.089
978.01	90.314
978.17	106.549
978.34	87.841
978.51	91.768
978.67	95.872
978.84	78.851
979.01	83.962
979.17	86.105
979.34	95.855
979.51	86.500
979.67	91.990
979.84	80.523
980.01	82.232
980.17	87.931
980.34	92.708
980.51	85.681
980.67	89.610
980.84	72.990
981.01	84.848
981.17	61.765
981.34	58.526
981.50	72.356
981.67	64.764
981.84	71.394
982.00	62.113
982.17	66.158
982.34	72.897
982.50	69.106
982.67	60.465
982.84	60.748
983.00	65.796
983.17	61.927
983.33	65.333
983.50	55.157
983.67	59.692
983.83	59.911
984.00	56.971
984.17	47.210
984.33	55.250
984.50	52.431
984.66	55.155
984.83	59.402
985.00	58.000
985.16	53.924
985.33	52.273
985.49	56.688
985.66	52.164
985.83	56.352
985.99	58.178
986.16	48.728
986.32	46.787
986.49	53.167
986.66	53.986
986.82	55.240
986.99	49.650
987.15	59.813
987.32	55.896
987.49	53.620
987.65	57.576
987.82	51.546
987.98	47.418
988.15	58.524
988.31	49.173
988.48	67.773
988.65	57.143
988.81	54.810
988.98	47.337
989.14	57.346
989.31	57.115
989.47	59.615
989.64	48.198
989.80	53.521
989.97	44.372
990.14	51.702
990.30	54.808
990.47	58.738
990.63	52.900
990.80	59.381
990.96	54.839
991.13	52.009
991.29	61.520
991.46	67.221
991.62	55.116
991.79	62.839
991.95	56.885
992.12	57.370
992.29	55.081
992.45	66.743
992.62	73.094
992.78	56.184
992.95	71.770
993.11	70.246
993.28	70.416
993.44	65.646
993.61	66.183
993.77	67.539
993.94	64.073
994.10	62.025
994.27	66.993
994.43	59.916
994.60	63.000
994.76	59.584
994.93	62.187
995.09	57.951
995.26	67.718
995.42	59.124
995.59	72.823
995.75	64.815
995.92	62.118
996.08	48.941
996.25	66.667
996.41	52.206
996.58	46.119
996.74	55.202
996.91	52.219
997.07	52.683
997.23	49.265
997.40	53.422
997.56	41.355
997.73	52.500
997.89	38.926
998.06	43.833
998.22	40.541
998.39	42.017
998.55	43.187
998.72	39.486
998.88	40.750
999.05	41.920
999.21	41.050
999.37	44.947
999.54	32.323
999.70	40.044
999.87	35.176
1000.03	36.301
1000.20	35.337
1000.36	30.216
1000.52	29.079
1000.69	44.242
1000.85	40.821
1001.02	27.854
1001.18	23.518
1001.35	35.669
1001.51	24.053
1001.67	24.053
1001.84	24.262
1002.00	30.252
1002.17	20.183
1002.33	34.895
1002.50	25.734
1002.66	24.645
1002.82	29.899
1002.99	20.800
1003.15	31.579
1003.32	27.068
1003.48	9.330
1003.64	26.972
1003.81	19.663
1003.97	17.580
1004.14	36.967
1004.30	31.204
1004.46	32.376
1004.63	20.996
1004.79	18.947
1004.95	17.224
1005.12	20.330
1005.28	18.325
1005.45	29.032
1005.61	30.562
1005.77	27.094
1005.94	26.906
1006.10	17.380
1006.26	23.022
1006.43	24.408
1006.59	23.034
1006.76	8.971
1006.92	20.471
1007.08	18.421
1007.25	22.296
1007.41	17.266
1007.57	25.490
1007.74	16.625
1007.90	17.784
1008.06	20.833
1008.23	27.179
1008.39	27.406
1008.55	23.502
1008.72	20.200
1008.88	30.667
1009.04	33.261
1009.21	32.936
1009.37	16.842
1009.53	30.216
1009.70	32.527
1009.86	34.392
1010.02	28.474
1010.19	20.571
1010.35	28.319
1010.51	39.141
1010.68	33.333
1010.84	35.433
1011.00	26.667
1011.17	38.504
1011.33	32.029
1011.49	29.944
1011.66	36.410
1011.82	34.783
1011.98	30.211
1012.14	27.397
1012.31	30.088
1012.47	28.645
1012.63	37.069
1012.80	32.011
1012.96	32.620
1013.12	29.444
1013.29	35.180
1013.45	23.499
1013.61	22.481
1013.77	38.243
1013.94	37.337
1014.10	36.364
1014.26	49.505
1014.43	35.440
1014.59	41.304
1014.75	27.979
1014.91	40.275
1015.08	29.782
1015.24	41.570
1015.40	34.750
1015.56	24.474
1015.73	43.210
1015.89	36.290
1016.05	28.199
1016.21	38.046
1016.38	25.737
1016.54	34.503
1016.70	35.588
1016.86	38.506
1017.03	38.965
1017.19	36.409
1017.35	30.660
1017.51	31.507
1017.68	43.636
1017.84	41.882
1018.00	50.131
1018.16	42.500
1018.33	39.045
1018.49	30.794
1018.65	37.330
1018.81	40.367
1018.97	29.178
1019.14	48.774
1019.30	48.159
1019.46	39.175
1019.62	23.047
1019.79	43.574
1019.95	48.329
1020.11	44.860
1020.27	37.705
1020.43	40.702
1020.60	38.636
1020.76	62.172
1020.92	40.336
1021.08	38.487
1021.24	47.516
1021.41	34.667
1021.57	49.138
1021.73	51.803
1021.89	45.066
1022.05	43.902
1022.21	51.389
1022.38	40.857
1022.54	47.278
1022.70	41.333
1022.86	45.821
1023.02	58.841
1023.19	52.303
1023.35	41.479
1023.51	36.218
1023.67	41.860
1023.83	37.023
1023.99	41.549
1024.16	29.365
1024.32	44.984
1024.48	32.270
1024.64	38.411
1024.80	34.397
1024.96	54.321
1025.12	42.633
1025.29	43.816
1025.45	56.071
1025.61	43.871
1025.77	28.881
1025.93	49.068
1026.09	55.985
1026.26	54.730
1026.42	76.230
1026.58	46.367
1026.74	44.314
1026.90	51.057
1027.06	40.594
1027.22	44.295
1027.38	71.277
1027.55	61.165
1027.71	51.744
1027.87	55.254
1028.03	38.645
1028.19	45.424
1028.35	48.339
1028.51	56.818
1028.67	58.555
1028.83	34.199
1029.00	46.897
1029.16	60.313
1029.32	49.248
1029.48	55.078
1029.64	55.410
1029.80	60.976
1029.96	44.444
1030.12	52.015
1030.28	51.579
1030.44	78.968
1030.61	61.181
1030.77	59.426
1030.93	56.349
1031.09	53.333
1031.25	72.589
1031.41	66.265
1031.57	59.494
1031.73	43.750
1031.89	54.770
1032.05	56.929
1032.21	54.286
1032.37	50.000
1032.53	59.176
1032.69	57.940
1032.86	46.635
1033.02	35.880
1033.18	62.692
1033.34	57.706
1033.50	35.751
1033.66	53.962
1033.82	61.538
1033.98	48.707
1034.14	57.143
1034.30	53.817
1034.46	57.519
1034.62	60.392
1034.78	53.676
1034.94	48.736
1035.10	52.427
1035.26	51.546
1035.42	50.000
1035.58	51.264
1035.74	44.398
1035.90	63.902
1036.06	48.315
1036.22	43.130
1036.38	58.590
1036.54	36.066
1036.70	65.833
1036.86	58.247
1037.02	51.648
1037.18	81.905
1037.34	63.492
1037.50	56.796
1037.66	47.368
1037.82	59.375
1037.98	49.462
1038.14	45.304
1038.30	35.000
1038.46	63.309
1038.62	46.479
1038.78	64.423
1038.94	61.084
1039.10	56.459
1039.26	52.586
1039.42	57.339
1039.58	71.598
1039.74	46.444
1039.90	48.500
1040.06	70.244
>>>>>End Processed Spectral Data<<<<<
