SpectraSuite Data File
++++++++++++++++++++++++++++++++++++
Date: Wed Jan 25 18:11:38 EET 2017
User: TheoProf
Dark Spectrum Present: Yes
Reference Spectrum Present: Yes
Number of Sampled Component Spectra: 1
Spectrometers: USB4C02475
Integration Time (usec): 64136 (USB4C02475)
Spectra Averaged: 1 (USB4C02475)
Boxcar Smoothing: 0 (USB4C02475)
Correct for Electrical Dark: No (USB4C02475)
Strobe/Lamp Enabled: No (USB4C02475)
Correct for Detector Non-linearity: No (USB4C02475)
Correct for Stray Light: No (USB4C02475)
Number of Pixels in Processed Spectrum: 3648
>>>>>Begin Processed Spectral Data<<<<<
344.91	233.333
345.13	233.333
345.35	233.333
345.57	107.143
345.79	475.000
346.00	36.842
346.22	375.000
346.44	148.276
346.66	-500.000
346.87	141.379
347.09	-100.000
347.31	52.174
347.53	27.451
347.74	181.579
347.96	53.571
348.18	-0.000
348.40	31.579
348.61	-61.538
348.83	57.576
349.05	37.705
349.27	87.500
349.48	117.647
349.70	252.941
349.92	154.839
350.14	113.115
350.35	281.481
350.57	0.000
350.79	123.529
351.01	86.154
351.22	200.000
351.44	57.692
351.66	10.000
351.87	188.889
352.09	237.500
352.31	5.714
352.53	75.000
352.74	68.966
352.96	82.000
353.18	53.659
353.40	1250.000
353.61	33.333
353.83	-172.727
354.05	-320.000
354.26	43.939
354.48	0.000
354.70	36.842
354.92	38.462
355.13	65.517
355.35	50.943
355.57	68.627
355.78	54.839
356.00	81.250
356.22	152.055
356.44	45.313
356.65	65.385
356.87	130.769
357.09	58.000
357.30	-1.020
357.52	-200.000
357.74	54.545
357.95	45.833
358.17	90.909
358.39	90.698
358.60	228.125
358.82	-15.385
359.04	360.000
359.26	35.294
359.47	-5.556
359.69	52.475
359.91	80.000
360.12	-370.000
360.34	113.514
360.56	83.333
360.77	89.744
360.99	67.241
361.21	60.714
361.42	61.702
361.64	162.500
361.86	91.667
362.07	119.512
362.29	38.636
362.51	53.571
362.72	415.385
362.94	84.615
363.16	38.636
363.37	-1.563
363.59	32.000
363.81	56.250
364.02	102.041
364.24	-461.538
364.46	44.231
364.67	325.000
364.89	0.000
365.11	5.556
365.32	164.286
365.54	-63.158
365.76	41.379
365.97	133.333
366.19	-100.000
366.41	-142.857
366.62	94.286
366.84	-414.286
367.05	-32.727
367.27	54.545
367.49	22.581
367.70	171.429
367.92	7.895
368.14	73.810
368.35	29.412
368.57	46.835
368.79	-24.528
369.00	34.694
369.22	490.000
369.43	151.563
369.65	-17.500
369.87	45.714
370.08	47.222
370.30	-400.000
370.51	60.000
370.73	19.697
370.95	42.308
371.16	57.407
371.38	425.000
371.60	666.667
371.81	73.684
372.03	88.406
372.24	-525.000
372.46	86.207
372.68	-145.833
372.89	28.070
373.11	49.153
373.32	114.815
373.54	-23.684
373.76	67.347
373.97	118.919
374.19	-20.513
374.40	60.345
374.62	-31.250
374.84	118.000
375.05	3.704
375.27	0.000
375.48	-23.529
375.70	55.172
375.92	92.308
376.13	20.000
376.35	-12.698
376.56	-85.714
376.78	0.000
376.99	-3.077
377.21	-69.767
377.43	100.000
377.64	41.558
377.86	85.714
378.07	260.000
378.29	34.091
378.51	61.728
378.72	24.658
378.94	50.000
379.15	31.579
379.37	16.000
379.58	156.250
379.80	147.917
380.01	-34.211
380.23	-31.111
380.45	-57.895
380.66	21.739
380.88	27.273
381.09	-20.312
381.31	31.250
381.52	-147.826
381.74	83.158
381.95	-290.000
382.17	-15.909
382.39	12.069
382.60	42.857
382.82	-16.000
383.03	-62.500
383.25	-2.500
383.46	21.053
383.68	47.727
383.89	40.952
384.11	42.373
384.32	102.326
384.54	39.394
384.76	39.130
384.97	5.882
385.19	8.333
385.40	-17.742
385.62	-44.828
385.83	20.635
386.05	45.000
386.26	-70.370
386.48	14.754
386.69	23.457
386.91	0.000
387.12	15.385
387.34	7.692
387.55	-177.778
387.77	42.466
387.98	28.431
388.20	47.368
388.41	-14.286
388.63	126.000
388.84	51.471
389.06	6.061
389.27	70.297
389.49	44.615
389.70	117.647
389.92	39.286
390.13	53.061
390.35	-11.765
390.56	94.118
390.78	44.318
390.99	43.662
391.21	70.588
391.42	44.444
391.64	-10.000
391.85	47.222
392.07	362.500
392.28	-1.639
392.50	2.222
392.71	-24.194
392.93	0.000
393.14	20.755
393.36	19.811
393.57	12.903
393.79	-1700.000
394.00	54.902
394.22	-13.889
394.43	27.957
394.65	-11.290
394.86	21.154
395.08	26.582
395.29	34.118
395.50	-15.854
395.72	-29.032
395.93	47.368
396.15	27.419
396.36	17.241
396.58	-0.870
396.79	-21.622
397.01	34.375
397.22	17.910
397.44	25.210
397.65	45.000
397.87	97.297
398.08	6.838
398.29	2.941
398.51	37.333
398.72	40.152
398.94	20.175
399.15	13.861
399.37	41.045
399.58	43.617
399.80	0.000
400.01	16.667
400.22	22.222
400.44	26.667
400.65	22.794
400.87	36.207
401.08	40.152
401.30	-1.389
401.51	-35.484
401.72	40.645
401.94	6.897
402.15	6.897
402.37	15.094
402.58	1.389
402.80	-6.849
403.01	-12.346
403.22	28.421
403.44	21.212
403.65	56.618
403.87	34.286
404.08	21.795
404.30	-2.308
404.51	2.542
404.72	29.787
404.94	3.817
405.15	14.189
405.37	7.874
405.58	-45.714
405.79	-3.158
406.01	23.529
406.22	-11.200
406.44	9.929
406.65	13.750
406.86	49.669
407.08	12.963
407.29	28.947
407.51	37.179
407.72	-13.889
407.93	37.500
408.15	13.497
408.36	13.139
408.58	10.811
408.79	2.113
409.00	9.677
409.22	18.579
409.43	-2.837
409.64	-11.719
409.86	5.556
410.07	0.633
410.29	23.364
410.50	-21.186
410.71	24.183
410.93	31.016
411.14	4.294
411.35	1.307
411.57	7.229
411.78	-10.059
412.00	23.077
412.21	-11.644
412.42	2.395
412.64	3.030
412.85	18.713
413.06	-7.339
413.28	4.667
413.49	2.899
413.70	22.034
413.92	-2.759
414.13	-34.821
414.34	11.518
414.56	-15.951
414.77	8.824
414.98	10.471
415.20	-6.936
415.41	-16.111
415.63	13.158
415.84	7.353
416.05	22.174
416.27	15.455
416.48	12.295
416.69	24.324
416.91	4.348
417.12	20.833
417.33	15.190
417.55	4.651
417.76	-7.471
417.97	-2.439
418.19	33.333
418.40	11.538
418.61	6.723
418.83	3.167
419.04	22.973
419.25	7.377
419.46	8.297
419.68	17.143
419.89	-9.626
420.10	15.481
420.32	20.717
420.53	0.000
420.74	1.154
420.96	12.351
421.17	1.186
421.38	14.943
421.60	4.583
421.81	5.000
422.02	6.897
422.23	4.979
422.45	19.259
422.66	-12.917
422.87	0.382
423.09	-7.048
423.30	13.426
423.51	16.605
423.73	21.212
423.94	17.301
424.15	1.931
424.36	22.500
424.58	12.111
424.79	2.970
425.00	11.620
425.22	13.333
425.43	1.087
425.64	19.156
425.85	-5.263
426.07	-5.363
426.28	4.452
426.49	0.738
426.71	3.801
426.92	7.692
427.13	-2.310
427.34	6.970
427.56	12.202
427.77	13.672
427.98	-12.903
428.19	-8.880
428.41	4.096
428.62	-10.274
428.83	10.306
429.04	0.311
429.26	1.475
429.47	11.385
429.68	4.615
429.89	-0.893
430.11	6.510
430.32	11.082
430.53	10.476
430.74	4.037
430.96	12.565
431.17	5.413
431.38	-13.226
431.59	-3.670
431.81	-4.301
432.02	-2.528
432.23	9.091
432.44	7.692
432.66	6.145
432.87	-1.824
433.08	2.546
433.29	11.675
433.51	9.314
433.72	15.457
433.93	22.145
434.14	3.991
434.35	-2.179
434.57	9.644
434.78	15.904
434.99	6.466
435.20	16.699
435.42	13.730
435.63	20.295
435.84	21.404
436.05	27.337
436.26	6.178
436.48	20.748
436.69	9.149
436.90	4.415
437.11	9.683
437.32	10.021
437.54	11.850
437.75	15.507
437.96	4.591
438.17	10.024
438.38	17.871
438.60	13.433
438.81	8.835
439.02	11.660
439.23	10.926
439.44	17.969
439.66	15.179
439.87	8.915
440.08	17.355
440.29	14.729
440.50	12.816
440.72	16.238
440.93	19.251
441.14	17.973
441.35	21.124
441.56	23.708
441.77	25.780
441.99	30.182
442.20	37.993
442.41	37.209
442.62	36.034
442.83	39.358
443.04	36.498
443.26	41.148
443.47	47.519
443.68	52.862
443.89	43.094
444.10	48.387
444.31	44.828
444.53	48.581
444.74	50.316
444.95	47.740
445.16	47.651
445.37	41.909
445.58	52.097
445.80	63.489
446.01	58.966
446.22	69.060
446.43	69.018
446.64	67.534
446.85	72.214
447.06	77.383
447.28	80.994
447.49	86.792
447.70	88.685
447.91	85.822
448.12	83.867
448.33	80.966
448.54	93.045
448.76	88.193
448.97	89.986
449.18	95.800
449.39	84.533
449.60	88.483
449.81	92.411
450.02	86.601
450.23	80.339
450.45	80.658
450.66	82.642
450.87	91.784
451.08	84.777
451.29	91.099
451.50	81.686
451.71	87.712
451.92	82.966
452.13	79.478
452.35	79.820
452.56	84.020
452.77	86.710
452.98	95.342
453.19	90.421
453.40	89.108
453.61	93.289
453.82	91.321
454.03	88.221
454.25	90.065
454.46	92.256
454.67	87.081
454.88	83.093
455.09	88.202
455.30	87.606
455.51	91.334
455.72	98.000
455.93	97.922
456.14	83.702
456.35	85.330
456.56	89.728
456.78	88.955
456.99	93.657
457.20	87.375
457.41	89.696
457.62	78.791
457.83	84.835
458.04	82.150
458.25	82.073
458.46	81.571
458.67	80.526
458.88	91.800
459.09	86.525
459.30	88.667
459.51	87.593
459.73	93.404
459.94	91.910
460.15	91.411
460.36	92.761
460.57	87.939
460.78	90.437
460.99	90.568
461.20	83.860
461.41	85.482
461.62	95.442
461.83	90.017
462.04	92.545
462.25	88.074
462.46	94.545
462.67	92.930
462.88	95.667
463.09	100.445
463.30	87.647
463.51	96.808
463.72	96.763
463.93	98.641
464.15	94.792
464.36	96.063
464.57	91.968
464.78	85.756
464.99	86.490
465.20	90.251
465.41	96.075
465.62	86.452
465.83	87.053
466.04	92.598
466.25	94.733
466.46	92.932
466.67	98.373
466.88	90.803
467.09	91.912
467.30	94.482
467.51	91.551
467.72	98.679
467.93	95.655
468.14	91.277
468.35	91.915
468.56	89.740
468.77	84.016
468.98	86.044
469.19	91.356
469.40	91.110
469.61	89.401
469.82	88.391
470.03	82.454
470.24	91.541
470.45	87.271
470.66	89.673
470.87	89.572
471.08	93.799
471.29	97.867
471.50	90.056
471.71	93.864
471.92	90.028
472.13	97.449
472.34	98.346
472.55	92.918
472.76	92.273
472.97	97.396
473.18	95.659
473.39	94.049
473.60	90.763
473.81	88.402
474.01	90.222
474.22	91.240
474.43	95.807
474.64	91.724
474.85	86.607
475.06	93.215
475.27	93.058
475.48	89.676
475.69	92.020
475.90	97.064
476.11	89.094
476.32	96.434
476.53	94.697
476.74	93.534
476.95	96.764
477.16	92.525
477.37	99.024
477.58	94.016
477.79	97.857
478.00	94.367
478.21	93.521
478.41	91.146
478.62	93.939
478.83	94.113
479.04	95.904
479.25	95.178
479.46	91.608
479.67	94.503
479.88	94.085
480.09	95.209
480.30	97.833
480.51	92.883
480.72	93.813
480.93	89.584
481.14	87.055
481.34	87.775
481.55	91.571
481.76	89.430
481.97	92.713
482.18	89.540
482.39	85.609
482.60	87.451
482.81	94.542
483.02	97.327
483.23	95.197
483.44	95.509
483.65	93.651
483.85	91.566
484.06	89.733
484.27	92.593
484.48	95.092
484.69	95.582
484.90	98.932
485.11	94.176
485.32	96.544
485.53	92.347
485.73	91.237
485.94	92.137
486.15	88.791
486.36	89.386
486.57	87.231
486.78	90.431
486.99	90.289
487.20	89.305
487.41	88.987
487.61	91.112
487.82	89.149
488.03	83.608
488.24	85.726
488.45	86.036
488.66	86.376
488.87	83.626
489.08	85.241
489.28	83.368
489.49	80.695
489.70	75.370
489.91	72.478
490.12	68.797
490.33	61.899
490.54	60.197
490.74	54.704
490.95	50.477
491.16	43.572
491.37	38.946
491.58	32.335
491.79	28.308
492.00	24.293
492.20	20.507
492.41	17.371
492.62	13.564
492.83	11.665
493.04	10.014
493.25	6.654
493.45	4.886
493.66	4.457
493.87	3.799
494.08	1.697
494.29	2.454
494.50	1.950
494.70	3.055
494.91	2.237
495.12	2.833
495.33	1.299
495.54	2.245
495.75	2.243
495.95	2.488
496.16	1.161
496.37	1.381
496.58	1.074
496.79	2.168
496.99	1.678
497.20	1.337
497.41	1.735
497.62	1.523
497.83	1.400
498.04	1.157
498.24	1.859
498.45	1.354
498.66	2.086
498.87	1.397
499.08	1.879
499.28	1.612
499.49	1.716
499.70	1.510
499.91	1.193
500.12	1.202
500.32	0.822
500.53	0.746
500.74	1.120
500.95	1.029
501.15	1.649
501.36	2.040
501.57	1.639
501.78	1.241
501.99	1.483
502.19	0.996
502.40	1.040
502.61	2.016
502.82	0.884
503.02	0.598
503.23	1.216
503.44	1.215
503.65	1.643
503.86	1.948
504.06	0.555
504.27	1.190
504.48	1.156
504.69	0.788
504.89	1.561
505.10	1.397
505.31	1.144
505.52	1.114
505.72	0.415
505.93	2.364
506.14	1.056
506.35	0.143
506.55	1.087
506.76	1.433
506.97	0.874
507.18	1.302
507.38	1.520
507.59	1.184
507.80	0.379
508.01	1.593
508.21	0.517
508.42	0.523
508.63	0.712
508.84	1.686
509.04	1.063
509.25	0.716
509.46	1.114
509.67	0.502
509.87	0.933
510.08	1.584
510.29	0.797
510.49	1.334
510.70	0.981
510.91	1.198
511.12	1.188
511.32	0.890
511.53	1.149
511.74	1.407
511.94	1.150
512.15	0.789
512.36	1.400
512.57	1.127
512.77	-0.060
512.98	0.736
513.19	0.834
513.39	0.672
513.60	1.122
513.81	0.591
514.01	0.856
514.22	1.029
514.43	1.110
514.64	0.788
514.84	0.365
515.05	0.854
515.26	0.919
515.46	0.635
515.67	1.137
515.88	1.193
516.08	0.796
516.29	1.069
516.50	1.885
516.70	1.290
516.91	1.213
517.12	1.267
517.32	1.055
517.53	0.847
517.74	1.291
517.95	0.586
518.15	1.217
518.36	1.098
518.57	0.985
518.77	0.808
518.98	1.510
519.19	1.227
519.39	0.769
519.60	1.393
519.80	1.327
520.01	1.084
520.22	1.530
520.42	0.831
520.63	0.990
520.84	1.433
521.04	0.946
521.25	0.567
521.46	0.707
521.66	1.047
521.87	0.968
522.08	1.419
522.28	0.970
522.49	1.335
522.70	0.943
522.90	0.518
523.11	0.815
523.31	1.248
523.52	1.309
523.73	1.228
523.93	1.405
524.14	0.314
524.35	1.002
524.55	1.622
524.76	0.873
524.97	1.743
525.17	1.071
525.38	0.794
525.58	1.106
525.79	1.407
526.00	1.335
526.20	1.020
526.41	0.961
526.61	1.160
526.82	1.350
527.03	1.369
527.23	1.531
527.44	1.024
527.64	1.477
527.85	1.370
528.06	1.001
528.26	0.767
528.47	1.944
528.68	1.361
528.88	0.888
529.09	1.383
529.29	1.142
529.50	1.509
529.70	1.838
529.91	1.284
530.12	1.140
530.32	1.641
530.53	0.926
530.73	1.317
530.94	0.664
531.15	1.718
531.35	1.710
531.56	1.142
531.76	1.534
531.97	1.887
532.17	1.437
532.38	1.616
532.59	1.932
532.79	1.144
533.00	1.503
533.20	1.630
533.41	1.298
533.61	1.792
533.82	1.744
534.03	1.975
534.23	1.342
534.44	1.416
534.64	1.587
534.85	2.047
535.05	1.341
535.26	1.798
535.46	2.116
535.67	2.108
535.88	2.393
536.08	2.231
536.29	2.149
536.49	1.619
536.70	2.025
536.90	1.968
537.11	2.447
537.31	2.012
537.52	2.349
537.72	3.248
537.93	3.756
538.13	4.669
538.34	5.110
538.55	5.741
538.75	6.827
538.96	7.931
539.16	8.846
539.37	10.641
539.57	12.415
539.78	14.253
539.98	16.065
540.19	18.376
540.39	20.532
540.60	23.390
540.80	25.259
541.01	27.437
541.21	29.200
541.42	32.131
541.62	33.625
541.83	35.607
542.03	38.147
542.24	40.085
542.44	40.607
542.65	41.587
542.85	42.774
543.06	44.284
543.26	45.618
543.47	46.413
543.67	48.782
543.88	50.250
544.08	53.606
544.29	54.700
544.49	57.488
544.70	60.491
544.90	62.566
545.11	66.049
545.31	70.439
545.52	72.772
545.72	74.710
545.93	75.611
546.13	75.319
546.34	77.211
546.54	79.520
546.75	84.491
546.95	88.126
547.15	93.201
547.36	94.568
547.56	95.997
547.77	95.940
547.97	97.750
548.18	99.871
548.38	99.864
548.59	100.510
548.79	99.427
549.00	98.446
549.20	98.812
549.41	100.095
549.61	96.337
549.81	96.639
550.02	93.370
550.22	95.125
550.43	96.109
550.63	98.132
550.84	95.321
551.04	95.487
551.25	96.042
551.45	94.527
551.65	94.048
551.86	93.826
552.06	95.084
552.27	96.080
552.47	94.834
552.68	96.269
552.88	97.370
553.08	97.012
553.29	97.253
553.49	99.637
553.70	100.961
553.90	101.194
554.11	101.133
554.31	101.192
554.51	102.309
554.72	100.126
554.92	100.595
555.13	101.968
555.33	101.490
555.53	103.075
555.74	101.352
555.94	98.356
556.15	97.134
556.35	95.630
556.56	96.935
556.76	96.447
556.96	98.600
557.17	97.852
557.37	99.164
557.58	99.369
557.78	100.655
557.98	99.489
558.19	98.290
558.39	97.647
558.59	95.328
558.80	94.590
559.00	96.174
559.21	97.019
559.41	96.450
559.61	94.283
559.82	94.888
560.02	94.757
560.23	95.314
560.43	94.338
560.63	95.725
560.84	94.994
561.04	95.227
561.24	93.317
561.45	96.569
561.65	96.962
561.85	97.881
562.06	95.142
562.26	96.310
562.47	95.387
562.67	97.074
562.87	94.155
563.08	94.667
563.28	96.299
563.48	95.301
563.69	94.899
563.89	94.073
564.09	95.341
564.30	94.871
564.50	94.921
564.70	94.320
564.91	95.680
565.11	93.336
565.31	93.587
565.52	92.732
565.72	92.963
565.92	92.151
566.13	91.124
566.33	91.638
566.53	92.015
566.74	93.129
566.94	94.409
567.14	96.131
567.35	95.713
567.55	94.861
567.75	95.960
567.96	98.137
568.16	96.973
568.36	95.557
568.57	95.294
568.77	96.121
568.97	94.959
569.18	95.658
569.38	96.995
569.58	95.521
569.79	94.153
569.99	94.533
570.19	96.072
570.39	97.668
570.60	98.341
570.80	98.700
571.00	101.957
571.21	100.908
571.41	100.416
571.61	100.077
571.82	95.546
572.02	96.684
572.22	97.352
572.42	97.699
572.63	99.399
572.83	102.217
573.03	100.813
573.24	99.343
573.44	97.589
573.64	96.869
573.84	95.256
574.05	95.047
574.25	94.864
574.45	93.382
574.66	93.779
574.86	95.203
575.06	96.354
575.26	97.245
575.47	99.462
575.67	98.784
575.87	97.577
576.07	99.844
576.28	98.789
576.48	95.503
576.68	97.436
576.88	98.686
577.09	99.130
577.29	100.570
577.49	98.253
577.69	97.792
577.90	96.771
578.10	96.215
578.30	93.952
578.50	93.326
578.71	96.617
578.91	99.714
579.11	99.688
579.31	98.230
579.52	100.115
579.72	100.361
579.92	99.403
580.12	100.007
580.33	101.371
580.53	101.180
580.73	100.087
580.93	97.444
581.13	96.987
581.34	95.455
581.54	92.267
581.74	93.796
581.94	93.821
582.15	93.212
582.35	93.984
582.55	93.459
582.75	93.387
582.95	96.410
583.16	95.911
583.36	97.596
583.56	95.787
583.76	95.383
583.96	94.848
584.17	94.653
584.37	97.179
584.57	97.848
584.77	98.365
584.97	97.810
585.18	95.204
585.38	94.165
585.58	91.129
585.78	91.006
585.98	91.430
586.19	91.414
586.39	92.836
586.59	96.054
586.79	96.786
586.99	96.804
587.20	98.622
587.40	100.021
587.60	99.789
587.80	99.100
588.00	99.599
588.20	99.784
588.41	102.597
588.61	102.377
588.81	101.413
589.01	99.311
589.21	96.071
589.41	93.569
589.62	91.639
589.82	91.365
590.02	89.170
590.22	90.145
590.42	89.971
590.62	91.344
590.83	91.758
591.03	94.843
591.23	96.655
591.43	98.229
591.63	100.027
591.83	100.187
592.03	98.569
592.24	96.055
592.44	94.792
592.64	91.242
592.84	89.227
593.04	87.691
593.24	89.100
593.44	92.941
593.65	94.716
593.85	94.079
594.05	96.873
594.25	97.073
594.45	95.198
594.65	92.396
594.85	88.666
595.06	85.618
595.26	83.630
595.46	82.658
595.66	82.288
595.86	81.334
596.06	80.260
596.26	78.433
596.46	74.949
596.66	70.567
596.87	69.346
597.07	64.583
597.27	62.155
597.47	57.976
597.67	56.082
597.87	51.672
598.07	47.185
598.27	44.340
598.47	39.529
598.67	35.157
598.88	31.481
599.08	27.798
599.28	24.576
599.48	20.531
599.68	18.306
599.88	15.334
600.08	12.802
600.28	11.158
600.48	9.098
600.68	7.521
600.88	6.309
601.09	5.274
601.29	3.857
601.49	3.561
601.69	2.531
601.89	2.249
602.09	2.100
602.29	1.699
602.49	1.352
602.69	1.683
602.89	1.262
603.09	1.258
603.29	1.252
603.49	1.121
603.69	0.931
603.90	1.212
604.10	1.113
604.30	0.785
604.50	1.004
604.70	1.311
604.90	1.084
605.10	1.076
605.30	1.084
605.50	0.981
605.70	0.918
605.90	1.121
606.10	1.127
606.30	1.113
606.50	0.921
606.70	0.880
606.90	0.938
607.10	0.788
607.30	0.899
607.50	0.934
607.70	0.799
607.90	0.951
608.10	0.911
608.30	0.884
608.50	1.003
608.70	0.726
608.90	0.908
609.11	0.660
609.31	0.728
609.51	0.804
609.71	0.739
609.91	0.764
610.11	1.083
610.31	0.893
610.51	1.191
610.71	1.422
610.91	1.505
611.11	1.790
611.31	1.844
611.51	2.315
611.71	1.754
611.91	1.259
612.11	1.566
612.31	1.551
612.51	1.521
612.71	1.479
612.91	1.534
613.11	1.599
613.31	1.305
613.51	1.247
613.71	1.157
613.91	1.224
614.11	1.045
614.31	1.152
614.50	1.157
614.70	1.047
614.90	0.888
615.10	0.639
615.30	0.784
615.50	1.022
615.70	0.929
615.90	0.955
616.10	0.863
616.30	0.975
616.50	0.784
616.70	0.763
616.90	0.893
617.10	0.895
617.30	0.683
617.50	0.618
617.70	0.590
617.90	0.639
618.10	0.917
618.30	0.907
618.50	0.807
618.70	0.751
618.90	0.687
619.10	0.643
619.30	0.654
619.49	0.686
619.69	0.848
619.89	0.599
620.09	0.852
620.29	0.884
620.49	0.675
620.69	0.676
620.89	0.775
621.09	0.807
621.29	0.998
621.49	0.840
621.69	0.828
621.89	0.712
622.09	0.793
622.29	0.872
622.48	0.836
622.68	0.711
622.88	0.602
623.08	0.752
623.28	0.738
623.48	0.713
623.68	0.801
623.88	0.655
624.08	0.770
624.28	0.956
624.48	0.825
624.67	0.768
624.87	0.781
625.07	0.756
625.27	0.893
625.47	0.913
625.67	0.711
625.87	0.931
626.07	0.843
626.27	0.744
626.47	0.968
626.66	0.863
626.86	0.734
627.06	0.696
627.26	0.688
627.46	0.836
627.66	0.897
627.86	0.883
628.06	0.651
628.25	0.859
628.45	0.871
628.65	1.031
628.85	1.113
629.05	0.762
629.25	0.987
629.45	0.996
629.65	0.823
629.84	0.905
630.04	0.989
630.24	0.946
630.44	1.200
630.64	0.992
630.84	0.925
631.04	1.388
631.23	1.176
631.43	0.956
631.63	1.061
631.83	1.036
632.03	1.200
632.23	1.098
632.42	1.030
632.62	0.994
632.82	1.193
633.02	1.217
633.22	1.380
633.42	1.292
633.62	1.163
633.81	1.470
634.01	1.248
634.21	1.269
634.41	1.555
634.61	1.514
634.80	1.670
635.00	1.957
635.20	2.268
635.40	2.512
635.60	2.958
635.80	3.768
635.99	4.332
636.19	4.838
636.39	5.602
636.59	6.768
636.79	7.841
636.98	8.721
637.18	9.769
637.38	11.142
637.58	12.740
637.78	14.471
637.97	15.763
638.17	17.217
638.37	19.114
638.57	20.893
638.77	22.299
638.96	23.470
639.16	25.078
639.36	26.972
639.56	28.249
639.76	30.537
639.95	32.786
640.15	34.696
640.35	35.396
640.55	35.958
640.75	37.914
640.94	39.302
641.14	40.172
641.34	42.684
641.54	43.722
641.73	45.600
641.93	46.755
642.13	47.874
642.33	49.805
642.53	51.315
642.72	53.406
642.92	55.878
643.12	59.772
643.32	64.246
643.51	68.417
643.71	70.240
643.91	72.534
644.11	74.701
644.30	76.191
644.50	76.280
644.70	78.849
644.90	79.679
645.09	80.472
645.29	83.002
645.49	84.094
645.69	85.383
645.88	87.693
646.08	89.085
646.28	89.307
646.48	90.475
646.67	91.628
646.87	94.337
647.07	96.280
647.26	96.129
647.46	95.981
647.66	95.730
647.86	96.949
648.05	98.063
648.25	98.250
648.45	100.467
648.65	101.737
648.84	102.365
649.04	103.110
649.24	103.766
649.43	100.990
649.63	101.197
649.83	100.026
650.03	99.194
650.22	98.112
650.42	99.572
650.62	101.149
650.81	98.660
651.01	98.175
651.21	97.123
651.40	96.066
651.60	94.591
651.80	94.478
652.00	94.327
652.19	95.025
652.39	95.942
652.59	95.841
652.78	93.812
652.98	92.081
653.18	92.474
653.37	92.495
653.57	91.992
653.77	92.468
653.96	93.968
654.16	95.837
654.36	97.217
654.55	94.922
654.75	93.910
654.95	92.781
655.14	92.333
655.34	93.596
655.54	94.760
655.73	93.107
655.93	93.037
656.13	92.264
656.32	93.324
656.52	96.331
656.72	96.474
656.91	96.315
657.11	96.108
657.31	94.579
657.50	93.455
657.70	94.352
657.90	95.360
658.09	97.163
658.29	97.252
658.49	96.418
658.68	96.597
658.88	98.089
659.07	99.132
659.27	98.512
659.47	99.157
659.66	100.347
659.86	99.007
660.06	101.722
660.25	98.930
660.45	99.083
660.64	99.364
660.84	96.984
661.04	96.245
661.23	95.546
661.43	95.335
661.63	96.166
661.82	93.825
662.02	94.421
662.21	94.912
662.41	95.479
662.61	94.438
662.80	95.346
663.00	94.269
663.19	93.881
663.39	92.325
663.59	93.545
663.78	94.999
663.98	95.002
664.17	97.083
664.37	96.834
664.57	96.199
664.76	95.485
664.96	92.882
665.15	90.684
665.35	89.365
665.55	88.310
665.74	87.609
665.94	87.928
666.13	89.456
666.33	90.266
666.53	91.142
666.72	92.974
666.92	94.434
667.11	95.699
667.31	94.460
667.50	95.287
667.70	94.353
667.90	94.750
668.09	95.665
668.29	94.991
668.48	96.269
668.68	97.344
668.87	97.406
669.07	98.070
669.26	97.205
669.46	98.665
669.66	99.635
669.85	100.660
670.05	101.008
670.24	102.260
670.44	100.992
670.63	102.344
670.83	100.764
671.02	99.125
671.22	96.576
671.42	96.340
671.61	95.445
671.81	95.295
672.00	95.624
672.20	93.738
672.39	93.640
672.59	93.366
672.78	94.004
672.98	94.807
673.17	93.408
673.37	93.007
673.56	91.789
673.76	93.320
673.95	95.421
674.15	95.775
674.34	97.371
674.54	96.470
674.73	92.759
674.93	91.808
675.13	90.520
675.32	90.513
675.52	91.175
675.71	92.657
675.91	92.978
676.10	94.377
676.30	92.417
676.49	92.053
676.69	90.107
676.88	91.647
677.08	91.823
677.27	90.228
677.47	91.495
677.66	93.537
677.86	95.562
678.05	95.413
678.24	95.234
678.44	95.381
678.63	95.985
678.83	95.045
679.02	96.096
679.22	96.002
679.41	97.936
679.61	101.040
679.80	102.968
680.00	102.809
680.19	102.506
680.39	100.853
680.58	97.491
680.78	94.836
680.97	94.755
681.17	92.915
681.36	93.301
681.56	93.284
681.75	94.087
681.94	95.201
682.14	93.772
682.33	93.332
682.53	94.044
682.72	93.467
682.92	93.969
683.11	93.372
683.31	92.598
683.50	91.723
683.69	92.879
683.89	93.777
684.08	93.866
684.28	94.377
684.47	95.091
684.67	95.314
684.86	94.758
685.06	90.798
685.25	89.905
685.44	88.945
685.64	89.893
685.83	90.531
686.03	92.195
686.22	93.494
686.42	94.670
686.61	95.793
686.80	97.731
687.00	97.449
687.19	97.241
687.39	97.445
687.58	97.350
687.77	97.553
687.97	96.065
688.16	94.623
688.36	94.417
688.55	95.464
688.74	94.484
688.94	96.115
689.13	95.811
689.33	94.241
689.52	94.125
689.71	93.336
689.91	92.028
690.10	89.491
690.30	87.288
690.49	85.269
690.68	85.438
690.88	83.431
691.07	84.235
691.27	84.954
691.46	84.615
691.65	84.690
691.85	83.851
692.04	82.719
692.23	78.658
692.43	74.861
692.62	72.479
692.82	69.003
693.01	63.964
693.20	60.978
693.40	58.942
693.59	57.756
693.78	54.894
693.98	52.873
694.17	52.030
694.36	49.426
694.56	47.678
694.75	44.748
694.94	41.292
695.14	38.722
695.33	35.077
695.53	33.508
695.72	31.055
695.91	29.580
696.11	26.430
696.30	24.225
696.49	22.185
696.69	19.236
696.88	17.221
697.07	15.767
697.27	13.566
697.46	12.093
697.65	10.900
697.85	9.218
698.04	8.092
698.23	7.470
698.43	6.251
698.62	5.253
698.81	4.586
699.01	4.057
699.20	3.529
699.39	2.880
699.58	2.547
699.78	2.228
699.97	1.683
700.16	1.736
700.36	1.346
700.55	1.190
700.74	1.067
700.94	1.181
701.13	0.906
701.32	0.913
701.52	0.892
701.71	0.815
701.90	0.662
702.09	0.708
702.29	0.519
702.48	0.674
702.67	0.735
702.87	0.453
703.06	0.651
703.25	0.716
703.44	0.570
703.64	0.406
703.83	0.526
704.02	0.544
704.22	0.360
704.41	0.607
704.60	0.554
704.79	0.503
704.99	0.725
705.18	0.541
705.37	0.491
705.56	0.616
705.76	0.393
705.95	0.466
706.14	0.380
706.33	0.499
706.53	0.394
706.72	0.571
706.91	0.395
707.11	0.635
707.30	0.466
707.49	0.421
707.68	0.471
707.88	0.366
708.07	0.317
708.26	0.331
708.45	0.506
708.64	0.338
708.84	0.314
709.03	0.459
709.22	0.677
709.41	0.375
709.61	0.350
709.80	0.331
709.99	0.438
710.18	0.439
710.38	0.242
710.57	0.213
710.76	0.434
710.95	0.397
711.14	0.238
711.34	0.309
711.53	0.366
711.72	0.217
711.91	0.037
712.11	0.384
712.30	0.402
712.49	0.196
712.68	0.181
712.87	0.212
713.07	0.298
713.26	0.388
713.45	0.153
713.64	0.159
713.83	0.208
714.03	0.406
714.22	0.026
714.41	0.337
714.60	0.151
714.79	0.155
714.99	0.320
715.18	0.201
715.37	0.206
715.56	0.262
715.75	0.246
715.94	0.497
716.14	0.404
716.33	0.166
716.52	0.109
716.71	0.315
716.90	0.367
717.10	0.347
717.29	0.273
717.48	0.148
717.67	0.232
717.86	0.372
718.05	-0.031
718.24	0.084
718.44	0.097
718.63	-0.004
718.82	0.359
719.01	-0.102
719.20	0.182
719.39	0.014
719.59	0.149
719.78	0.168
719.97	0.259
720.16	0.052
720.35	0.220
720.54	0.223
720.73	0.037
720.93	0.416
721.12	0.084
721.31	0.270
721.50	0.182
721.69	0.142
721.88	0.196
722.07	0.159
722.27	0.108
722.46	-0.014
722.65	0.142
722.84	0.148
723.03	0.230
723.22	0.208
723.41	0.330
723.60	0.291
723.79	0.190
723.99	0.152
724.18	-0.070
724.37	0.371
724.56	0.246
724.75	0.322
724.94	0.108
725.13	0.197
725.32	-0.019
725.51	0.137
725.71	0.226
725.90	0.266
726.09	0.245
726.28	0.066
726.47	0.100
726.66	0.101
726.85	0.211
727.04	0.447
727.23	0.215
727.42	0.284
727.61	-0.029
727.81	0.141
728.00	0.130
728.19	-0.014
728.38	-0.043
728.57	0.225
728.76	0.139
728.95	0.078
729.14	0.118
729.33	0.190
729.52	0.141
729.71	0.110
729.90	0.045
730.09	-0.020
730.28	0.000
730.48	0.117
730.67	0.020
730.86	0.051
731.05	-0.016
731.24	0.185
731.43	-0.097
731.62	0.227
731.81	0.342
732.00	0.081
732.19	0.320
732.38	-0.102
732.57	0.154
732.76	0.085
732.95	0.031
733.14	0.204
733.33	0.202
733.52	0.258
733.71	0.314
733.90	-0.094
734.09	0.015
734.28	0.092
734.47	0.218
734.66	-0.010
734.85	0.125
735.04	0.005
735.23	-0.033
735.42	-0.111
735.61	0.406
735.81	0.034
736.00	0.308
736.19	0.063
736.38	0.238
736.57	0.101
736.76	0.082
736.95	0.088
737.14	0.118
737.33	0.543
737.52	-0.062
737.71	0.067
737.90	0.088
738.09	-0.037
738.28	0.054
738.47	-0.181
738.66	-0.063
738.85	-0.041
739.04	-0.093
739.22	-0.059
739.41	0.059
739.60	0.069
739.79	0.041
739.98	-0.023
740.17	0.108
740.36	0.236
740.55	0.227
740.74	0.082
740.93	0.301
741.12	0.145
741.31	0.051
741.50	0.114
741.69	0.143
741.88	0.279
742.07	0.091
742.26	0.212
742.45	-0.127
742.64	0.063
742.83	0.524
743.02	0.035
743.21	0.202
743.40	0.413
743.59	0.175
743.78	0.215
743.97	-0.110
744.16	0.226
744.34	0.060
744.53	0.556
744.72	0.160
744.91	0.467
745.10	0.078
745.29	0.161
745.48	0.302
745.67	-0.025
745.86	0.141
746.05	0.038
746.24	0.196
746.43	-0.139
746.62	0.101
746.81	-0.116
747.00	0.385
747.18	0.195
747.37	-0.090
747.56	0.198
747.75	0.077
747.94	-0.119
748.13	0.272
748.32	0.390
748.51	0.069
748.70	-0.042
748.89	0.014
749.08	-0.166
749.26	0.062
749.45	-0.219
749.64	0.083
749.83	-0.199
750.02	0.417
750.21	-0.116
750.40	0.263
750.59	0.118
750.78	0.215
750.96	0.143
751.15	0.270
751.34	0.142
751.53	-0.181
751.72	0.106
751.91	-0.111
752.10	0.059
752.29	0.446
752.47	0.134
752.66	0.160
752.85	0.231
753.04	0.095
753.23	0.353
753.42	0.175
753.61	0.112
753.80	0.393
753.98	0.239
754.17	0.024
754.36	0.269
754.55	-0.107
754.74	0.138
754.93	0.026
755.12	0.271
755.30	0.215
755.49	0.327
755.68	0.524
755.87	-0.071
756.06	0.367
756.25	0.000
756.43	0.299
756.62	0.121
756.81	0.423
757.00	0.650
757.19	0.080
757.38	0.152
757.56	0.047
757.75	0.366
757.94	0.214
758.13	0.493
758.32	0.759
758.51	0.079
758.69	0.247
758.88	0.040
759.07	0.394
759.26	0.152
759.45	0.465
759.63	0.410
759.82	0.475
760.01	0.426
760.20	-0.349
760.39	0.514
760.57	0.265
760.76	0.400
760.95	0.712
761.14	-0.180
761.33	-0.068
761.51	0.533
761.70	-0.035
761.89	0.309
762.08	0.312
762.27	0.735
762.45	0.293
762.64	0.666
762.83	0.168
763.02	-0.260
763.21	0.681
763.39	0.254
763.58	-0.115
763.77	0.153
763.96	0.477
764.14	0.191
764.33	0.455
764.52	-0.132
764.71	0.200
764.89	0.280
765.08	0.326
765.27	-0.654
765.46	-0.053
765.65	0.557
765.83	0.000
766.02	-0.459
766.21	-0.107
766.40	0.081
766.58	0.343
766.77	0.470
766.96	0.507
767.15	-0.030
767.33	0.244
767.52	0.216
767.71	0.031
767.90	0.172
768.08	0.443
768.27	-0.449
768.46	-0.064
768.64	0.390
768.83	-0.576
769.02	0.898
769.21	-0.656
769.39	0.017
769.58	0.274
769.77	0.103
769.96	0.665
770.14	0.461
770.33	0.253
770.52	0.338
770.70	0.136
770.89	0.618
771.08	-0.477
771.27	0.705
771.45	0.205
771.64	-0.173
771.83	0.815
772.01	-0.315
772.20	0.814
772.39	0.805
772.57	-0.381
772.76	0.055
772.95	0.347
773.14	0.649
773.32	0.074
773.51	0.000
773.70	0.340
773.88	-0.232
774.07	-0.602
774.26	0.645
774.44	0.401
774.63	0.651
774.82	-0.429
775.00	0.490
775.19	1.350
775.38	0.885
775.56	-0.877
775.75	0.461
775.94	-0.039
776.12	0.274
776.31	-0.080
776.50	1.517
776.68	0.413
776.87	0.805
777.06	0.122
777.24	0.386
777.43	0.596
777.62	0.472
777.80	0.000
777.99	0.248
778.18	0.876
778.36	0.105
778.55	-0.331
778.74	-0.041
778.92	-0.394
779.11	1.327
779.29	-0.327
779.48	0.220
779.67	0.144
779.85	0.625
780.04	-0.225
780.23	1.539
780.41	0.386
780.60	-0.244
780.79	0.080
780.97	0.541
781.16	0.767
781.34	-0.636
781.53	-0.299
781.72	-0.156
781.90	0.214
782.09	0.835
782.28	0.486
782.46	0.608
782.65	-0.411
782.83	0.625
783.02	-0.120
783.21	0.811
783.39	0.595
783.58	0.424
783.76	0.688
783.95	0.153
784.14	0.317
784.32	-0.258
784.51	0.236
784.69	0.216
784.88	-0.327
785.06	0.072
785.25	-0.463
785.44	-0.266
785.62	-0.246
785.81	0.850
785.99	-0.198
786.18	-0.739
786.37	0.148
786.55	0.516
786.74	0.761
786.92	0.277
787.11	1.029
787.29	-0.847
787.48	0.637
787.67	0.453
787.85	0.234
788.04	0.077
788.22	0.385
788.41	0.710
788.59	0.658
788.78	0.300
788.96	0.270
789.15	-0.443
789.34	0.248
789.52	-0.732
789.71	0.114
789.89	0.341
790.08	0.514
790.26	-0.325
790.45	-0.194
790.63	-0.161
790.82	-0.245
791.00	0.682
791.19	0.195
791.38	0.054
791.56	-0.214
791.75	-0.141
791.93	0.507
792.12	0.346
792.30	0.122
792.49	-0.206
792.67	0.827
792.86	-0.535
793.04	1.152
793.23	0.138
793.41	-0.363
793.60	0.399
793.78	0.328
793.97	0.608
794.15	0.661
794.34	0.446
794.52	0.329
794.71	-0.102
794.89	-0.200
795.08	-0.260
795.26	-0.471
795.45	0.362
795.63	0.481
795.82	0.149
796.00	-0.059
796.19	-0.325
796.37	-0.254
796.56	-0.460
796.74	1.595
796.93	0.342
797.11	-0.131
797.30	0.259
797.48	-0.087
797.67	0.403
797.85	-0.176
798.04	0.976
798.22	0.285
798.41	-0.031
798.59	0.215
798.77	-0.107
798.96	-0.231
799.14	-0.787
799.33	-0.287
799.51	-0.106
799.70	-0.209
799.88	-0.257
800.07	-0.299
800.25	0.887
800.44	0.103
800.62	0.000
800.80	0.527
800.99	0.163
801.17	-0.266
801.36	0.504
801.54	0.015
801.73	-0.617
801.91	-0.438
802.10	-0.232
802.28	0.640
802.46	0.575
802.65	-0.086
802.83	-0.087
803.02	0.543
803.20	0.427
803.39	-0.362
803.57	0.179
803.75	-0.045
803.94	-0.411
804.12	0.825
804.31	-0.344
804.49	-0.240
804.67	0.410
804.86	0.540
805.04	-0.357
805.23	1.138
805.41	0.235
805.59	-0.032
805.78	0.112
805.96	-0.342
806.15	0.338
806.33	-0.278
806.51	0.122
806.70	0.091
806.88	-0.061
807.07	0.139
807.25	0.332
807.43	-0.206
807.62	0.925
807.80	-0.207
807.99	0.016
808.17	-0.093
808.35	-0.472
808.54	0.183
808.72	0.212
808.90	0.151
809.09	-0.060
809.27	-0.543
809.46	0.575
809.64	0.000
809.82	-0.402
810.01	-0.371
810.19	0.215
810.37	0.015
810.56	-0.134
810.74	0.075
810.92	0.090
811.11	0.075
811.29	0.366
811.48	-0.078
811.66	0.205
811.84	-0.032
812.03	0.836
812.21	0.311
812.39	0.567
812.58	0.641
812.76	-0.016
812.94	-0.354
813.13	0.401
813.31	0.664
813.49	0.521
813.68	0.889
813.86	0.507
814.04	-0.164
814.23	0.621
814.41	-0.030
814.59	0.148
814.78	0.222
814.96	0.558
815.14	1.362
815.33	0.212
815.51	-0.154
815.69	1.058
815.87	0.000
816.06	-0.275
816.24	-0.231
816.42	0.485
816.61	0.189
816.79	0.574
816.97	-0.816
817.16	-0.238
817.34	1.250
817.52	-0.285
817.70	-0.038
817.89	0.019
818.07	0.077
818.25	0.606
818.44	0.163
818.62	0.196
818.80	-0.159
818.98	0.053
819.17	0.272
819.35	-0.483
819.53	0.737
819.72	-0.057
819.90	0.519
820.08	0.135
820.26	0.695
820.45	1.372
820.63	-0.756
820.81	0.397
820.99	0.281
821.18	-0.098
821.36	1.272
821.54	0.366
821.73	0.097
821.91	-0.040
822.09	0.020
822.27	-0.339
822.46	0.534
822.64	0.850
822.82	0.433
823.00	0.657
823.19	0.961
823.37	0.237
823.55	1.184
823.73	0.713
823.91	-0.273
824.10	-0.345
824.28	0.305
824.46	1.000
824.64	1.095
824.83	-0.270
825.01	0.764
825.19	0.707
825.37	-0.120
825.56	1.104
825.74	-0.717
825.92	0.271
826.10	0.156
826.28	-0.262
826.47	1.466
826.65	0.217
826.83	-0.022
827.01	0.371
827.19	0.130
827.38	-0.066
827.56	1.442
827.74	0.760
827.92	0.513
828.10	-0.214
828.29	-0.172
828.47	1.938
828.65	-0.873
828.83	0.481
829.01	-0.247
829.20	0.382
829.38	0.336
829.56	0.362
829.74	-0.232
829.92	1.974
830.10	-0.339
830.29	0.079
830.47	0.052
830.65	0.671
830.83	0.721
831.01	0.026
831.20	1.673
831.38	0.843
831.56	-0.577
831.74	0.026
831.92	-0.669
832.10	1.023
832.29	0.757
832.47	0.887
832.65	1.029
832.83	-0.538
833.01	1.612
833.19	0.819
833.37	-0.567
833.56	-0.028
833.74	0.751
833.92	1.778
834.10	0.822
834.28	1.575
834.46	-0.250
834.64	0.829
834.83	1.806
835.01	-0.438
835.19	0.276
835.37	-0.443
835.55	-0.522
835.73	0.902
835.91	-0.775
836.09	0.438
836.28	1.482
836.46	2.170
836.64	0.313
836.82	1.007
837.00	0.422
837.18	-0.259
837.36	0.945
837.54	1.185
837.72	2.906
837.91	1.968
838.09	1.928
838.27	0.471
838.45	0.222
838.63	0.876
838.81	0.789
838.99	0.391
839.17	1.403
839.35	2.202
839.53	2.437
839.72	2.244
839.90	1.467
840.08	2.278
840.26	1.084
840.44	1.275
840.62	1.249
840.80	1.560
840.98	2.493
841.16	1.699
841.34	1.277
841.52	-0.743
841.70	2.735
841.89	2.328
842.07	1.852
842.25	1.181
842.43	2.625
842.61	1.937
842.79	2.310
842.97	1.156
843.15	2.112
843.33	0.790
843.51	3.098
843.69	2.049
843.87	0.183
844.05	2.343
844.23	1.207
844.41	1.941
844.59	2.022
844.77	1.094
844.95	2.482
845.13	1.036
845.31	2.047
845.50	1.438
845.68	2.492
845.86	0.660
846.04	0.956
846.22	0.583
846.40	3.353
846.58	1.908
846.76	1.045
846.94	4.004
847.12	3.120
847.30	1.155
847.48	1.885
847.66	4.032
847.84	1.969
848.02	3.526
848.20	4.675
848.38	5.309
848.56	2.673
848.74	4.293
848.92	4.932
849.10	5.573
849.28	7.539
849.46	4.423
849.64	7.169
849.82	8.779
850.00	8.788
850.18	7.125
850.36	7.948
850.54	9.940
850.72	11.231
850.90	10.028
851.08	9.453
851.26	11.310
851.44	12.485
851.62	13.029
851.80	14.151
851.98	13.100
852.16	16.104
852.34	13.823
852.52	16.968
852.70	15.748
852.87	16.982
853.05	15.098
853.23	14.560
853.41	15.280
853.59	15.572
853.77	16.860
853.95	17.515
854.13	15.984
854.31	17.645
854.49	17.033
854.67	16.556
854.85	19.635
855.03	17.391
855.21	15.974
855.39	19.121
855.57	17.191
855.75	20.466
855.93	18.659
856.11	17.102
856.28	22.628
856.46	18.341
856.64	22.245
856.82	21.623
857.00	23.615
857.18	24.016
857.36	23.487
857.54	25.460
857.72	27.452
857.90	26.802
858.08	29.306
858.26	30.120
858.44	29.885
858.61	29.779
858.79	29.748
858.97	30.234
859.15	30.899
859.33	29.448
859.51	29.874
859.69	29.193
859.87	29.830
860.05	29.216
860.23	30.966
860.40	31.594
860.58	27.961
860.76	28.755
860.94	27.136
861.12	29.395
861.30	28.528
861.48	26.098
861.66	25.349
861.84	22.422
862.01	24.738
862.19	23.766
862.37	20.342
862.55	21.261
862.73	19.412
862.91	19.705
863.09	19.813
863.27	18.096
863.44	18.266
863.62	17.608
863.80	17.229
863.98	16.901
864.16	15.829
864.34	16.636
864.52	16.326
864.69	16.112
864.87	18.321
865.05	17.494
865.23	17.799
865.41	21.078
865.59	23.155
865.76	20.052
865.94	24.035
866.12	21.250
866.30	25.111
866.48	27.918
866.66	27.395
866.83	28.143
867.01	29.438
867.19	30.910
867.37	32.447
867.55	33.114
867.73	32.211
867.90	34.140
868.08	36.582
868.26	39.522
868.44	38.598
868.62	39.167
868.79	41.350
868.97	41.934
869.15	42.057
869.33	44.625
869.51	44.243
869.69	43.821
869.86	40.359
870.04	41.393
870.22	40.327
870.40	40.076
870.57	38.952
870.75	37.305
870.93	36.326
871.11	31.583
871.29	27.968
871.46	28.989
871.64	31.142
871.82	28.566
872.00	27.177
872.18	27.530
872.35	27.552
872.53	26.918
872.71	25.117
872.89	24.911
873.06	26.428
873.24	24.762
873.42	23.922
873.60	25.810
873.77	23.715
873.95	24.417
874.13	21.628
874.31	24.453
874.49	22.368
874.66	22.479
874.84	23.604
875.02	21.695
875.20	24.179
875.37	22.241
875.55	25.122
875.73	23.492
875.91	24.932
876.08	24.488
876.26	24.465
876.44	25.000
876.61	23.926
876.79	24.134
876.97	22.759
877.15	23.691
877.32	24.032
877.50	23.077
877.68	20.813
877.86	20.590
878.03	19.979
878.21	20.135
878.39	21.119
878.56	20.410
878.74	18.032
878.92	18.060
879.10	18.148
879.27	15.753
879.45	14.568
879.63	16.726
879.80	15.149
879.98	14.807
880.16	14.825
880.34	15.484
880.51	14.765
880.69	14.055
880.87	15.885
881.04	15.201
881.22	13.944
881.40	13.363
881.57	12.821
881.75	15.629
881.93	16.139
882.10	15.365
882.28	15.270
882.46	16.868
882.63	16.504
882.81	16.467
882.99	18.192
883.16	17.525
883.34	17.888
883.52	16.667
883.69	16.325
883.87	17.829
884.05	17.638
884.22	19.193
884.40	19.173
884.58	17.953
884.75	20.081
884.93	20.561
885.11	18.478
885.28	20.295
885.46	20.321
885.64	21.472
885.81	20.052
885.99	20.238
886.17	20.387
886.34	23.336
886.52	21.377
886.70	23.615
886.87	20.484
887.05	20.104
887.22	21.170
887.40	19.826
887.58	19.816
887.75	21.248
887.93	21.348
888.11	20.410
888.28	20.728
888.46	20.489
888.63	20.927
888.81	22.645
888.99	21.030
889.16	21.547
889.34	23.193
889.51	21.721
889.69	22.992
889.87	21.415
890.04	21.069
890.22	21.299
890.39	21.771
890.57	23.077
890.75	24.202
890.92	23.253
891.10	23.358
891.27	25.315
891.45	22.635
891.63	23.811
891.80	23.517
891.98	22.276
892.15	22.695
892.33	22.882
892.51	22.495
892.68	23.802
892.86	23.177
893.03	23.695
893.21	25.183
893.38	23.488
893.56	23.389
893.74	25.485
893.91	26.861
894.09	24.845
894.26	26.575
894.44	26.913
894.61	26.217
894.79	27.895
894.96	29.056
895.14	29.258
895.32	29.327
895.49	30.826
895.67	30.483
895.84	31.502
896.02	32.201
896.19	32.617
896.37	31.812
896.54	32.451
896.72	35.844
896.89	35.582
897.07	35.619
897.25	36.263
897.42	36.703
897.60	38.946
897.77	41.010
897.95	38.280
898.12	39.772
898.30	41.968
898.47	45.265
898.65	43.541
898.82	42.606
899.00	45.102
899.17	43.784
899.35	44.822
899.52	43.799
899.70	46.212
899.87	43.694
900.05	47.136
900.22	48.488
900.40	48.394
900.57	49.532
900.75	49.821
900.92	51.233
901.10	49.186
901.27	49.454
901.45	51.094
901.62	51.290
901.80	52.965
901.97	51.794
902.15	53.171
902.32	51.758
902.50	51.512
902.67	53.937
902.85	53.423
903.02	53.476
903.20	56.164
903.37	59.049
903.54	58.610
903.72	58.327
903.89	58.830
904.07	60.625
904.24	61.813
904.42	65.357
904.59	62.575
904.77	63.419
904.94	63.370
905.12	64.837
905.29	61.805
905.47	63.465
905.64	64.339
905.81	64.747
905.99	65.306
906.16	65.888
906.34	65.555
906.51	66.991
906.69	67.290
906.86	65.824
907.03	68.253
907.21	70.803
907.38	68.187
907.56	65.352
907.73	66.680
907.91	68.167
908.08	64.741
908.25	64.416
908.43	66.256
908.60	67.642
908.78	69.865
908.95	64.205
909.13	64.998
909.30	67.622
909.47	67.172
909.65	64.579
909.82	62.340
910.00	63.446
910.17	61.917
910.34	65.017
910.52	60.947
910.69	60.664
910.87	61.317
911.04	64.857
911.21	60.034
911.39	61.557
911.56	58.993
911.73	59.932
911.91	62.969
912.08	61.778
912.26	59.649
912.43	62.866
912.60	63.390
912.78	62.735
912.95	62.725
913.13	64.115
913.30	64.777
913.47	68.469
913.65	65.668
913.82	65.499
913.99	65.576
914.17	63.485
914.34	58.286
914.51	63.181
914.69	62.385
914.86	62.512
915.03	66.336
915.21	62.345
915.38	66.251
915.56	65.391
915.73	68.187
915.90	66.047
916.08	71.391
916.25	69.439
916.42	68.919
916.60	70.195
916.77	68.468
916.94	73.690
917.12	67.082
917.29	71.701
917.46	72.301
917.64	71.512
917.81	77.452
917.98	70.087
918.16	74.974
918.33	72.151
918.50	72.465
918.67	70.367
918.85	76.528
919.02	74.080
919.19	75.862
919.37	69.590
919.54	71.849
919.71	67.263
919.89	68.549
920.06	71.323
920.23	67.289
920.41	64.751
920.58	69.427
920.75	69.054
920.92	69.989
921.10	72.126
921.27	67.639
921.44	71.042
921.62	76.075
921.79	68.467
921.96	72.589
922.13	73.770
922.31	74.869
922.48	72.268
922.65	67.297
922.82	67.037
923.00	64.563
923.17	70.063
923.34	71.392
923.52	66.499
923.69	64.571
923.86	67.104
924.03	67.039
924.21	63.607
924.38	66.751
924.55	64.470
924.72	63.144
924.90	71.942
925.07	70.233
925.24	69.307
925.41	74.963
925.59	70.721
925.76	69.199
925.93	71.250
926.10	70.532
926.28	70.272
926.45	70.726
926.62	64.878
926.79	66.595
926.96	64.747
927.14	65.658
927.31	65.305
927.48	65.756
927.65	65.948
927.83	66.567
928.00	62.979
928.17	62.230
928.34	62.457
928.51	68.041
928.69	62.263
928.86	65.111
929.03	61.349
929.20	67.902
929.37	61.293
929.55	62.787
929.72	62.908
929.89	64.207
930.06	62.200
930.23	56.467
930.41	56.772
930.58	55.461
930.75	59.401
930.92	56.882
931.09	59.265
931.27	55.639
931.44	60.172
931.61	58.609
931.78	55.584
931.95	54.668
932.12	55.639
932.30	51.181
932.47	53.438
932.64	58.967
932.81	50.876
932.98	55.049
933.16	51.962
933.33	55.762
933.50	56.022
933.67	58.285
933.84	53.797
934.01	59.015
934.18	51.124
934.36	57.034
934.53	57.222
934.70	60.526
934.87	51.943
935.04	52.696
935.21	52.886
935.38	51.541
935.56	53.801
935.73	52.040
935.90	54.022
936.07	51.633
936.24	55.096
936.41	53.013
936.58	54.605
936.76	54.657
936.93	56.879
937.10	62.138
937.27	56.843
937.44	57.530
937.61	57.521
937.78	55.803
937.95	59.532
938.13	53.245
938.30	60.220
938.47	49.387
938.64	53.596
938.81	57.692
938.98	56.177
939.15	56.444
939.32	61.028
939.49	50.968
939.66	53.471
939.84	49.626
940.01	56.599
940.18	54.883
940.35	46.051
940.52	46.110
940.69	52.018
940.86	52.207
941.03	44.815
941.20	41.300
941.37	46.391
941.54	51.371
941.71	48.391
941.89	45.761
942.06	45.539
942.23	46.230
942.40	42.644
942.57	43.945
942.74	42.783
942.91	39.771
943.08	45.305
943.25	40.731
943.42	46.489
943.59	42.464
943.76	41.296
943.93	38.199
944.10	36.111
944.27	34.987
944.44	37.209
944.61	41.265
944.79	37.465
944.96	36.999
945.13	36.115
945.30	42.412
945.47	35.616
945.64	33.202
945.81	35.596
945.98	39.310
946.15	37.802
946.32	41.029
946.49	25.780
946.66	38.863
946.83	33.379
947.00	35.088
947.17	33.826
947.34	37.700
947.51	35.681
947.68	33.754
947.85	40.240
948.02	29.286
948.19	38.951
948.36	40.948
948.53	43.426
948.70	43.728
948.87	36.946
949.04	35.163
949.21	33.828
949.38	41.837
949.55	40.455
949.72	44.646
949.89	36.563
950.06	37.390
950.23	49.495
950.40	32.504
950.57	47.387
950.74	40.636
950.91	37.868
951.08	45.645
951.25	43.916
951.42	50.095
951.59	46.835
951.76	46.465
951.93	43.165
952.10	44.203
952.27	41.228
952.44	54.286
952.61	45.591
952.77	46.679
952.94	49.593
953.11	47.810
953.28	53.774
953.45	50.000
953.62	45.191
953.79	43.889
953.96	55.664
954.13	55.172
954.30	54.234
954.47	57.168
954.64	63.654
954.81	59.557
954.98	51.934
955.15	64.000
955.32	58.524
955.49	67.515
955.65	54.600
955.82	61.711
955.99	54.724
956.16	58.185
956.33	63.221
956.50	59.144
956.67	56.942
956.84	52.434
957.01	63.340
957.18	55.268
957.35	54.032
957.52	56.426
957.68	60.491
957.85	58.298
958.02	58.396
958.19	70.488
958.36	69.194
958.53	64.844
958.70	55.675
958.87	70.246
959.04	60.769
959.21	58.370
959.37	81.039
959.54	74.713
959.71	70.379
959.88	71.584
960.05	74.347
960.22	80.097
960.39	65.217
960.56	78.509
960.72	79.626
960.89	57.962
961.06	63.542
961.23	69.615
961.40	69.384
961.57	62.269
961.74	59.289
961.90	67.273
962.07	64.557
962.24	74.335
962.41	64.901
962.58	72.650
962.75	67.573
962.92	75.163
963.08	76.180
963.25	72.885
963.42	76.259
963.59	75.847
963.76	68.623
963.93	62.385
964.10	74.651
964.26	67.155
964.43	55.427
964.60	73.176
964.77	70.139
964.94	70.991
965.10	72.521
965.27	70.023
965.44	63.554
965.61	84.511
965.78	77.955
965.95	79.952
966.11	76.498
966.28	66.759
966.45	73.757
966.62	71.394
966.79	80.159
966.95	79.638
967.12	81.757
967.29	76.871
967.46	80.995
967.63	73.617
967.79	72.668
967.96	74.336
968.13	76.023
968.30	70.866
968.47	69.792
968.63	80.810
968.80	78.758
968.97	82.460
969.14	78.416
969.31	75.000
969.47	67.748
969.64	76.152
969.81	72.516
969.98	73.529
970.14	83.948
970.31	75.217
970.48	68.527
970.65	65.647
970.81	80.208
970.98	67.024
971.15	63.732
971.32	66.444
971.48	68.571
971.65	80.054
971.82	61.174
971.99	76.984
972.15	69.359
972.32	54.930
972.49	58.849
972.66	65.402
972.82	59.142
972.99	62.588
973.16	51.068
973.33	62.322
973.49	54.912
973.66	64.815
973.83	68.367
974.00	59.459
974.16	62.273
974.33	64.246
974.50	69.565
974.67	53.827
974.83	72.881
975.00	52.153
975.17	64.368
975.33	55.841
975.50	63.441
975.67	61.521
975.84	61.325
976.00	58.353
976.17	53.176
976.34	62.060
976.50	67.403
976.67	50.688
976.84	63.776
977.00	55.319
977.17	70.986
977.34	58.134
977.50	60.858
977.67	63.014
977.84	55.587
978.01	60.209
978.17	64.232
978.34	65.509
978.51	52.785
978.67	61.468
978.84	56.092
979.01	58.962
979.17	57.474
979.34	54.404
979.51	54.500
979.67	60.194
979.84	58.195
980.01	49.886
980.17	62.931
980.34	58.854
980.51	64.203
980.67	77.143
980.84	54.639
981.01	53.788
981.17	50.980
981.34	49.684
981.50	56.731
981.67	61.290
981.84	49.389
982.00	59.021
982.17	54.962
982.34	50.701
982.50	64.024
982.67	55.039
982.84	55.841
983.00	57.963
983.17	53.670
983.33	53.111
983.50	58.969
983.67	56.388
983.83	54.343
984.00	61.298
984.17	45.923
984.33	56.750
984.50	49.260
984.66	56.186
984.83	56.197
985.00	47.333
985.16	58.734
985.33	39.545
985.49	41.401
985.66	47.153
985.83	59.016
985.99	54.244
986.16	52.642
986.32	57.430
986.49	54.299
986.66	56.720
986.82	63.537
986.99	51.282
987.15	50.701
987.32	52.830
987.49	39.593
987.65	47.319
987.82	49.227
987.98	46.244
988.15	49.364
988.31	53.428
988.48	48.341
988.65	53.968
988.81	46.756
988.98	36.884
989.14	40.995
989.31	37.747
989.47	35.337
989.64	38.739
989.80	40.141
989.97	40.909
990.14	37.660
990.30	48.317
990.47	30.825
990.63	35.731
990.80	42.268
990.96	28.341
991.13	29.464
991.29	37.055
991.46	36.342
991.62	27.674
991.79	29.019
991.95	38.375
992.12	31.746
992.29	28.659
992.45	38.303
992.62	23.767
992.78	18.449
992.95	41.148
993.11	27.293
993.28	39.364
993.44	26.477
993.61	25.104
993.77	28.272
993.94	21.739
994.10	28.481
994.27	17.359
994.43	27.215
994.60	25.250
994.76	23.788
994.93	31.207
995.09	26.415
995.26	32.524
995.42	18.005
995.59	28.232
995.75	34.722
995.92	28.706
996.08	22.353
996.25	29.383
996.41	23.529
996.58	29.452
996.74	29.936
996.91	17.755
997.07	32.683
997.23	29.167
997.40	25.828
997.56	23.598
997.73	37.250
997.89	21.477
998.06	24.670
998.22	17.690
998.39	25.210
998.55	30.716
998.72	23.364
998.88	45.500
999.05	31.148
999.21	20.525
999.37	28.723
999.54	23.737
999.70	20.350
999.87	20.854
1000.03	38.813
1000.20	29.567
1000.36	24.460
1000.52	31.799
1000.69	40.202
1000.85	26.134
1001.02	29.909
1001.18	36.329
1001.35	33.121
1001.51	22.049
1001.67	31.403
1001.84	31.224
1002.00	22.269
1002.17	34.404
1002.33	26.464
1002.50	28.668
1002.66	36.019
1002.82	45.729
1002.99	33.600
1003.15	37.845
1003.32	32.080
1003.48	22.488
1003.64	34.860
1003.81	27.528
1003.97	36.073
1004.14	39.336
1004.30	30.958
1004.46	48.564
1004.63	30.303
1004.79	24.737
1004.95	23.907
1005.12	34.615
1005.28	34.817
1005.45	34.793
1005.61	35.452
1005.77	34.975
1005.94	34.305
1006.10	38.791
1006.26	34.532
1006.43	26.066
1006.59	35.674
1006.76	35.884
1006.92	40.941
1007.08	45.933
1007.25	37.307
1007.41	29.976
1007.57	27.451
1007.74	38.035
1007.90	36.082
1008.06	31.771
1008.23	39.744
1008.39	37.448
1008.55	39.171
1008.72	37.905
1008.88	34.667
1009.04	42.981
1009.21	49.403
1009.37	44.474
1009.53	37.890
1009.70	46.505
1009.86	52.910
1010.02	39.636
1010.19	40.857
1010.35	24.189
1010.51	50.597
1010.68	39.141
1010.84	46.194
1011.00	42.821
1011.17	48.753
1011.33	41.076
1011.49	44.350
1011.66	51.538
1011.82	32.481
1011.98	47.432
1012.14	45.479
1012.31	40.118
1012.47	41.944
1012.63	41.667
1012.80	50.794
1012.96	37.166
1013.12	47.500
1013.29	44.044
1013.45	46.214
1013.61	48.837
1013.77	52.713
1013.94	44.386
1014.10	38.182
1014.26	48.515
1014.43	40.659
1014.59	52.717
1014.75	44.560
1014.91	40.961
1015.08	39.709
1015.24	50.581
1015.40	42.250
1015.56	38.158
1015.73	38.272
1015.89	42.742
1016.05	43.839
1016.21	53.213
1016.38	36.461
1016.54	58.480
1016.70	49.118
1016.86	43.678
1017.03	38.692
1017.19	48.379
1017.35	47.170
1017.51	45.479
1017.68	57.143
1017.84	40.235
1018.00	51.175
1018.16	54.444
1018.33	48.315
1018.49	53.968
1018.65	40.872
1018.81	50.459
1018.97	57.790
1019.14	48.229
1019.30	57.790
1019.46	52.234
1019.62	53.516
1019.79	61.129
1019.95	56.298
1020.11	63.240
1020.27	64.262
1020.43	54.737
1020.60	56.061
1020.76	70.412
1020.92	63.585
1021.08	63.487
1021.24	58.075
1021.41	59.667
1021.57	59.770
1021.73	63.934
1021.89	55.921
1022.05	60.976
1022.21	59.167
1022.38	52.571
1022.54	56.734
1022.70	58.667
1022.86	60.807
1023.02	48.986
1023.19	67.105
1023.35	58.199
1023.51	45.513
1023.67	38.372
1023.83	54.962
1023.99	66.901
1024.16	58.333
1024.32	55.987
1024.48	60.638
1024.64	49.007
1024.80	64.539
1024.96	63.580
1025.12	56.740
1025.29	54.064
1025.45	58.214
1025.61	50.645
1025.77	45.126
1025.93	56.832
1026.09	65.637
1026.26	50.000
1026.42	61.475
1026.58	51.211
1026.74	66.667
1026.90	53.172
1027.06	51.485
1027.22	60.403
1027.38	58.511
1027.55	80.097
1027.71	57.558
1027.87	64.068
1028.03	57.371
1028.19	61.695
1028.35	56.458
1028.51	54.221
1028.67	55.133
1028.83	69.264
1029.00	50.345
1029.16	73.750
1029.32	72.556
1029.48	61.328
1029.64	60.656
1029.80	89.837
1029.96	68.254
1030.12	62.637
1030.28	71.228
1030.44	71.825
1030.61	70.042
1030.77	72.541
1030.93	75.794
1031.09	58.431
1031.25	91.371
1031.41	59.438
1031.57	70.886
1031.73	64.167
1031.89	75.265
1032.05	67.041
1032.21	57.959
1032.37	65.108
1032.53	70.412
1032.69	83.691
1032.86	75.481
1033.02	44.850
1033.18	69.231
1033.34	59.498
1033.50	77.720
1033.66	81.509
1033.82	80.586
1033.98	75.862
1034.14	79.724
1034.30	57.634
1034.46	78.947
1034.62	51.765
1034.78	80.147
1034.94	64.260
1035.10	68.447
1035.26	60.825
1035.42	71.523
1035.58	61.733
1035.74	78.423
1035.90	70.244
1036.06	43.071
1036.22	61.069
1036.38	70.044
1036.54	86.475
1036.70	63.333
1036.86	84.536
1037.02	52.015
1037.18	89.524
1037.34	71.032
1037.50	83.010
1037.66	58.421
1037.82	80.903
1037.98	67.025
1038.14	93.923
1038.30	73.846
1038.46	73.381
1038.62	78.404
1038.78	82.692
1038.94	90.640
1039.10	105.742
1039.26	92.241
1039.42	70.183
1039.58	78.698
1039.74	58.159
1039.90	69.000
1040.06	93.659
>>>>>End Processed Spectral Data<<<<<
