SpectraSuite Data File
++++++++++++++++++++++++++++++++++++
Date: Wed Jan 25 18:13:48 EET 2017
User: TheoProf
Dark Spectrum Present: Yes
Reference Spectrum Present: Yes
Number of Sampled Component Spectra: 1
Spectrometers: USB4C02475
Integration Time (usec): 64136 (USB4C02475)
Spectra Averaged: 1 (USB4C02475)
Boxcar Smoothing: 0 (USB4C02475)
Correct for Electrical Dark: No (USB4C02475)
Strobe/Lamp Enabled: No (USB4C02475)
Correct for Detector Non-linearity: No (USB4C02475)
Correct for Stray Light: No (USB4C02475)
Number of Pixels in Processed Spectrum: 3648
>>>>>Begin Processed Spectral Data<<<<<
344.91	25.000
345.13	25.000
345.35	25.000
345.57	107.143
345.79	-0.000
346.00	157.895
346.22	600.000
346.44	96.552
346.66	-160.000
346.87	227.586
347.09	480.000
347.31	82.609
347.53	52.941
347.74	60.526
347.96	142.857
348.18	141.667
348.40	94.737
348.61	-69.231
348.83	103.030
349.05	37.705
349.27	-70.833
349.48	52.941
349.70	41.176
349.92	-12.903
350.14	100.000
350.35	59.259
350.57	-25.000
350.79	52.941
351.01	50.769
351.22	-40.000
351.44	91.026
351.66	-110.000
351.87	355.556
352.09	-87.500
352.31	-17.143
352.53	80.000
352.74	113.793
352.96	40.000
353.18	12.195
353.40	500.000
353.61	42.857
353.83	400.000
354.05	110.000
354.26	39.394
354.48	2.381
354.70	31.579
354.92	73.077
355.13	58.621
355.35	96.226
355.57	5.882
355.78	61.290
356.00	152.083
356.22	131.507
356.44	12.500
356.65	71.154
356.87	26.923
357.09	86.000
357.30	66.327
357.52	200.000
357.74	-27.273
357.95	120.833
358.17	50.000
358.39	51.163
358.60	43.750
358.82	161.538
359.04	-280.000
359.26	33.333
359.47	-52.778
359.69	50.495
359.91	185.000
360.12	-60.000
360.34	70.270
360.56	-16.667
360.77	15.385
360.99	43.103
361.21	50.000
361.42	38.298
361.64	-50.000
361.86	-83.333
362.07	14.634
362.29	79.545
362.51	72.619
362.72	376.923
362.94	69.231
363.16	127.273
363.37	48.438
363.59	-24.000
363.81	75.000
364.02	85.714
364.24	-369.231
364.46	67.308
364.67	50.000
364.89	21.212
365.11	0.000
365.32	128.571
365.54	163.158
365.76	47.126
365.97	0.000
366.19	-72.727
366.41	128.571
366.62	100.000
366.84	342.857
367.05	43.636
367.27	148.485
367.49	58.065
367.70	20.000
367.92	57.895
368.14	23.810
368.35	-14.706
368.57	29.114
368.79	47.170
369.00	102.041
369.22	90.000
369.43	54.687
369.65	112.500
369.87	97.143
370.08	11.111
370.30	660.000
370.51	-140.000
370.73	22.727
370.95	92.308
371.16	27.778
371.38	112.500
371.60	-366.667
371.81	68.421
372.03	117.391
372.24	-575.000
372.46	144.828
372.68	-87.500
372.89	73.684
373.11	10.169
373.32	-51.852
373.54	86.842
373.76	73.469
373.97	67.568
374.19	12.821
374.40	44.828
374.62	-6.250
374.84	32.000
375.05	27.778
375.27	34.000
375.48	-141.176
375.70	58.621
375.92	13.462
376.13	6.667
376.35	90.476
376.56	128.571
376.78	75.000
376.99	1.538
377.21	-44.186
377.43	242.308
377.64	23.377
377.86	157.143
378.07	-360.000
378.29	25.000
378.51	16.049
378.72	102.740
378.94	55.714
379.15	-8.772
379.37	2.000
379.58	0.000
379.80	112.500
380.01	-10.526
380.23	-13.333
380.45	-13.158
380.66	-34.783
380.88	-13.636
381.09	0.000
381.31	31.250
381.52	-13.043
381.74	85.263
381.95	-220.000
382.17	20.455
382.39	36.207
382.60	80.952
382.82	80.000
383.03	0.000
383.25	13.750
383.46	36.842
383.68	-65.909
383.89	80.952
384.11	15.254
384.32	127.907
384.54	39.394
384.76	-19.565
384.97	27.451
385.19	-20.833
385.40	-32.258
385.62	-17.241
385.83	57.143
386.05	113.333
386.26	-70.370
386.48	3.279
386.69	61.728
386.91	0.000
387.12	18.462
387.34	-44.231
387.55	-238.889
387.77	27.397
387.98	3.922
388.20	3.947
388.41	-94.286
388.63	18.000
388.84	32.353
389.06	92.424
389.27	32.673
389.49	9.231
389.70	84.314
389.92	-8.929
390.13	36.735
390.35	30.882
390.56	68.627
390.78	12.500
390.99	8.451
391.21	73.529
391.42	40.741
391.64	-2.500
391.85	63.889
392.07	-50.000
392.28	37.705
392.50	5.556
392.71	30.645
392.93	-20.690
393.14	44.340
393.36	36.792
393.57	36.559
393.79	-3900.000
394.00	82.353
394.22	34.722
394.43	18.280
394.65	-20.968
394.86	22.115
395.08	-7.595
395.29	41.176
395.50	-41.463
395.72	145.161
395.93	33.083
396.15	50.000
396.36	-10.345
396.58	37.391
396.79	27.027
397.01	39.063
397.22	32.836
397.44	37.815
397.65	70.833
397.87	-16.216
398.08	7.692
398.29	-25.000
398.51	-28.000
398.72	21.212
398.94	18.421
399.15	0.990
399.37	30.597
399.58	22.340
399.80	61.765
400.01	55.952
400.22	16.667
400.44	31.111
400.65	10.294
400.87	47.414
401.08	-3.788
401.30	-6.944
401.51	51.613
401.72	15.484
401.94	11.207
402.15	-2.586
402.37	25.472
402.58	-19.444
402.80	5.479
403.01	-45.679
403.22	51.579
403.44	-3.788
403.65	56.618
403.87	30.000
404.08	17.308
404.30	-6.923
404.51	11.864
404.72	44.681
404.94	-10.687
405.15	18.243
405.37	54.331
405.58	-1.429
405.79	5.263
406.01	43.791
406.22	23.200
406.44	22.695
406.65	22.500
406.86	36.424
407.08	17.593
407.29	11.842
407.51	28.846
407.72	38.889
407.93	12.500
408.15	20.245
408.36	18.248
408.58	15.676
408.79	17.606
409.00	1.290
409.22	7.650
409.43	32.624
409.64	-16.406
409.86	12.346
410.07	-4.430
410.29	28.037
410.50	0.000
410.71	11.765
410.93	31.551
411.14	15.951
411.35	2.614
411.57	12.048
411.78	0.592
412.00	13.986
412.21	-1.370
412.42	11.377
412.64	-16.667
412.85	33.333
413.06	-5.505
413.28	4.667
413.49	16.908
413.70	11.299
413.92	14.483
414.13	4.464
414.34	10.471
414.56	14.110
414.77	18.235
414.98	-1.571
415.20	15.029
415.41	5.000
415.63	25.439
415.84	-3.431
416.05	24.348
416.27	11.364
416.48	15.984
416.69	13.514
416.91	19.324
417.12	23.958
417.33	10.970
417.55	6.977
417.76	0.575
417.97	13.659
418.19	27.899
418.40	-3.846
418.61	13.445
418.83	7.692
419.04	5.856
419.25	11.885
419.46	1.747
419.68	14.286
419.89	12.834
420.10	15.063
420.32	9.960
420.53	15.663
420.74	16.154
420.96	21.912
421.17	-8.300
421.38	-1.149
421.60	7.917
421.81	9.583
422.02	7.663
422.23	-0.415
422.45	0.741
422.66	3.750
422.87	8.015
423.09	20.264
423.30	16.204
423.51	18.450
423.73	22.944
423.94	10.381
424.15	3.861
424.36	10.312
424.58	9.689
424.79	17.162
425.00	2.113
425.22	17.333
425.43	4.710
425.64	13.961
425.85	-12.146
426.07	19.243
426.28	12.329
426.49	2.952
426.71	-0.585
426.92	-1.479
427.13	0.660
427.34	4.242
427.56	6.250
427.77	16.016
427.98	-15.323
428.19	2.317
428.41	12.969
428.62	7.192
428.83	14.206
429.04	2.795
429.26	10.029
429.47	20.615
429.68	6.154
429.89	5.060
430.11	4.688
430.32	9.499
430.53	14.524
430.74	0.311
430.96	14.136
431.17	18.519
431.38	-2.581
431.59	-4.281
431.81	4.032
432.02	-8.708
432.23	5.909
432.44	6.410
432.66	7.542
432.87	-5.775
433.08	9.722
433.29	0.000
433.51	15.686
433.72	7.963
433.93	19.814
434.14	8.685
434.35	7.990
434.57	8.176
434.78	16.145
434.99	23.922
435.20	25.049
435.42	33.197
435.63	39.299
435.84	29.623
436.05	37.919
436.26	28.958
436.48	29.533
436.69	35.319
436.90	25.144
437.11	29.423
437.32	30.063
437.54	29.522
437.75	37.773
437.96	37.126
438.17	43.198
438.38	51.205
438.60	41.978
438.81	40.161
439.02	39.526
439.23	42.593
439.44	40.820
439.66	44.464
439.87	45.543
440.08	56.198
440.29	50.775
440.50	47.961
440.72	40.675
440.93	48.485
441.14	52.199
441.35	56.202
441.56	45.098
441.77	47.947
441.99	44.942
442.20	48.029
442.41	54.204
442.62	54.655
442.83	58.784
443.04	54.828
443.26	56.140
443.47	53.534
443.68	71.886
443.89	65.009
444.10	73.656
444.31	74.955
444.53	67.780
444.74	80.222
444.95	80.832
445.16	74.161
445.37	68.123
445.58	75.484
445.80	86.914
446.01	82.714
446.22	78.120
446.43	82.209
446.64	78.714
446.85	83.511
447.06	82.504
447.28	83.772
447.49	90.094
447.70	90.520
447.91	89.744
448.12	81.467
448.33	84.276
448.54	86.862
448.76	76.814
448.97	88.293
449.18	91.761
449.39	75.804
449.60	84.270
449.81	91.518
450.02	88.152
450.23	79.427
450.45	82.632
450.66	86.541
450.87	85.109
451.08	82.797
451.29	86.092
451.50	87.615
451.71	82.484
451.92	76.593
452.13	78.980
452.35	79.820
452.56	80.275
452.77	83.613
452.98	87.534
453.19	81.481
453.40	83.858
453.61	80.403
453.82	86.528
454.03	83.190
454.25	86.452
454.46	87.984
454.67	85.287
454.88	73.093
455.09	82.135
455.30	84.326
455.51	89.738
455.72	88.118
455.93	92.727
456.14	83.003
456.35	78.499
456.56	88.366
456.78	92.280
456.99	85.945
457.20	87.375
457.41	89.913
457.62	85.134
457.83	79.560
458.04	85.804
458.25	86.632
458.46	86.808
458.67	82.181
458.88	88.711
459.09	86.727
459.30	90.778
459.51	86.108
459.73	90.957
459.94	86.745
460.15	93.763
460.36	92.181
460.57	91.809
460.78	85.974
460.99	84.454
461.20	81.810
461.41	86.763
461.62	91.431
461.83	87.153
462.04	91.431
462.25	91.431
462.46	90.364
462.67	89.779
462.88	99.740
463.09	93.772
463.30	91.765
463.51	97.843
463.72	95.826
463.93	94.732
464.15	96.094
464.36	89.528
464.57	93.253
464.78	85.830
464.99	82.312
465.20	84.712
465.41	86.566
465.62	80.215
465.83	85.122
466.04	91.260
466.25	89.853
466.46	93.158
466.67	88.979
466.88	85.547
467.09	84.853
467.30	86.444
467.51	86.139
467.72	94.784
467.93	93.004
468.14	88.668
468.35	87.144
468.56	83.766
468.77	85.315
468.98	82.650
469.19	85.489
469.40	88.514
469.61	88.076
469.82	85.442
470.03	79.571
470.24	90.664
470.45	83.314
470.66	85.313
470.87	83.540
471.08	88.200
471.29	91.825
471.50	90.782
471.71	91.932
471.92	91.690
472.13	87.022
472.34	94.295
472.55	90.933
472.76	96.616
472.97	90.233
473.18	93.652
473.39	90.234
473.60	90.663
473.81	88.450
474.01	88.938
474.22	90.091
474.43	92.008
474.64	91.923
474.85	85.329
475.06	90.360
475.27	90.385
475.48	89.769
475.69	86.700
475.90	88.024
476.11	90.989
476.32	92.404
476.53	89.978
476.74	90.705
476.95	95.035
477.16	87.911
477.37	86.462
477.58	87.779
477.79	83.712
478.00	88.819
478.21	86.634
478.41	86.338
478.62	82.802
478.83	85.463
479.04	89.132
479.25	87.075
479.46	86.485
479.67	87.986
479.88	88.132
480.09	91.422
480.30	90.732
480.51	87.721
480.72	85.360
480.93	82.399
481.14	81.972
481.34	81.055
481.55	84.496
481.76	84.824
481.97	83.009
482.18	82.522
482.39	79.341
482.60	84.248
482.81	85.276
483.02	84.096
483.23	79.605
483.44	81.648
483.65	77.195
483.85	73.938
484.06	70.078
484.27	66.238
484.48	67.677
484.69	66.111
484.90	64.248
485.11	59.538
485.32	54.954
485.53	51.724
485.73	44.402
485.94	40.485
486.15	34.027
486.36	31.297
486.57	26.448
486.78	24.364
486.99	20.368
487.20	17.590
487.41	14.581
487.61	13.409
487.82	12.428
488.03	9.459
488.24	6.954
488.45	6.518
488.66	4.106
488.87	4.991
489.08	4.902
489.28	3.212
489.49	3.826
489.70	3.875
489.91	2.273
490.12	3.038
490.33	3.691
490.54	3.321
490.74	3.683
490.95	3.643
491.16	1.668
491.37	1.380
491.58	2.635
491.79	2.181
492.00	2.468
492.20	2.771
492.41	2.887
492.62	1.984
492.83	2.644
493.04	2.296
493.25	1.957
493.45	2.050
493.66	2.374
493.87	2.757
494.08	1.225
494.29	1.998
494.50	2.143
494.70	2.212
494.91	2.570
495.12	2.474
495.33	3.099
495.54	1.998
495.75	2.423
495.95	2.466
496.16	1.317
496.37	1.144
496.58	0.811
496.79	1.825
496.99	1.721
497.20	1.469
497.41	2.017
497.62	2.094
497.83	1.315
498.04	0.278
498.24	2.287
498.45	2.053
498.66	1.512
498.87	0.868
499.08	2.354
499.28	1.510
499.49	1.361
499.70	2.067
499.91	0.500
500.12	0.853
500.32	-0.215
500.53	1.371
500.74	1.906
500.95	1.150
501.15	1.905
501.36	1.465
501.57	0.691
501.78	0.240
501.99	1.984
502.19	0.955
502.40	1.101
502.61	1.126
502.82	1.395
503.02	1.080
503.23	0.418
503.44	1.196
503.65	1.468
503.86	1.544
504.06	1.318
504.27	0.693
504.48	1.264
504.69	0.183
504.89	0.871
505.10	0.838
505.31	1.071
505.52	1.745
505.72	0.812
505.93	2.048
506.14	1.500
506.35	0.500
506.55	0.820
506.76	1.523
506.97	1.266
507.18	0.739
507.38	1.855
507.59	1.289
507.80	0.896
508.01	0.866
508.21	0.433
508.42	1.130
508.63	1.276
508.84	0.818
509.04	0.658
509.25	0.784
509.46	1.878
509.67	0.971
509.87	1.483
510.08	1.067
510.29	1.013
510.49	0.510
510.70	0.245
510.91	1.183
511.12	0.781
511.32	0.265
511.53	0.667
511.74	1.575
511.94	1.482
512.15	0.167
512.36	1.371
512.57	0.982
512.77	0.920
512.98	0.664
513.19	1.111
513.39	0.073
513.60	1.212
513.81	0.500
514.01	0.529
514.22	0.875
514.43	1.235
514.64	1.104
514.84	0.682
515.05	0.869
515.26	1.265
515.46	1.034
515.67	0.605
515.88	1.135
516.08	0.693
516.29	1.009
516.50	1.571
516.70	1.275
516.91	1.228
517.12	0.446
517.32	1.568
517.53	0.962
517.74	0.675
517.95	0.643
518.15	0.702
518.36	1.011
518.57	0.638
518.77	0.751
518.98	1.891
519.19	0.785
519.39	0.584
519.60	1.206
519.80	1.604
520.01	0.626
520.22	1.286
520.42	1.159
520.63	0.962
520.84	1.068
521.04	1.186
521.25	0.594
521.46	0.694
521.66	1.009
521.87	1.226
522.08	1.047
522.28	0.849
522.49	1.740
522.70	0.891
522.90	0.648
523.11	0.637
523.31	1.339
523.52	1.244
523.73	1.413
523.93	1.547
524.14	0.537
524.35	1.272
524.55	1.194
524.76	0.548
524.97	1.524
525.17	1.230
525.38	1.054
525.58	0.990
525.79	1.433
526.00	1.516
526.20	1.477
526.41	1.330
526.61	0.786
526.82	1.713
527.03	1.050
527.23	1.955
527.44	1.305
527.64	1.352
527.85	1.119
528.06	1.344
528.26	1.125
528.47	1.818
528.68	1.030
528.88	1.514
529.09	1.581
529.29	1.486
529.50	1.558
529.70	1.447
529.91	1.296
530.12	1.866
530.32	1.446
530.53	2.286
530.73	1.970
530.94	1.493
531.15	2.552
531.35	3.565
531.56	3.543
531.76	4.397
531.97	4.971
532.17	5.791
532.38	6.756
532.59	7.774
532.79	8.399
533.00	10.576
533.20	12.127
533.41	13.116
533.61	14.832
533.82	16.723
534.03	17.802
534.23	19.638
534.44	21.856
534.64	23.733
534.85	24.759
535.05	26.269
535.26	29.455
535.46	30.957
535.67	32.330
535.88	34.123
536.08	35.813
536.29	36.434
536.49	37.008
536.70	38.884
536.90	38.736
537.11	41.095
537.31	43.052
537.52	43.912
537.72	44.863
537.93	44.221
538.13	44.484
538.34	45.923
538.55	46.467
538.75	49.084
538.96	48.763
539.16	48.637
539.37	51.083
539.57	52.410
539.78	55.096
539.98	57.610
540.19	58.682
540.39	59.847
540.60	64.410
540.80	67.681
541.01	69.312
541.21	70.095
541.42	72.209
541.62	75.179
541.83	77.290
542.03	80.182
542.24	82.354
542.44	84.479
542.65	85.930
542.85	86.678
543.06	86.742
543.26	89.334
543.47	90.140
543.67	92.182
543.88	93.000
544.08	94.070
544.29	92.218
544.49	94.974
544.70	96.456
544.90	97.598
545.11	97.456
545.31	97.876
545.52	98.133
545.72	95.952
545.93	94.807
546.13	91.960
546.34	90.580
546.54	89.862
546.75	93.498
546.95	95.794
547.15	99.864
547.36	96.692
547.56	96.498
547.77	95.490
547.97	95.878
548.18	97.201
548.38	97.301
548.59	98.048
548.79	97.286
549.00	96.692
549.20	97.263
549.41	98.757
549.61	95.594
549.81	94.560
550.02	92.791
550.22	92.541
550.43	91.539
550.63	92.856
550.84	92.461
551.04	92.222
551.25	92.881
551.45	93.658
551.65	94.690
551.86	92.362
552.06	94.056
552.27	93.817
552.47	94.249
552.68	94.934
552.88	93.683
553.08	92.837
553.29	93.115
553.49	94.041
553.70	95.073
553.90	96.794
554.11	97.632
554.31	97.427
554.51	98.085
554.72	98.423
554.92	97.656
555.13	99.417
555.33	96.832
555.53	99.785
555.74	100.970
555.94	96.829
556.15	95.525
556.35	92.986
556.56	94.754
556.76	92.112
556.96	93.351
557.17	93.028
557.37	93.355
557.58	93.714
557.78	94.857
557.98	93.573
558.19	92.647
558.39	92.018
558.59	90.965
558.80	91.070
559.00	93.284
559.21	93.553
559.41	93.966
559.61	91.936
559.82	93.543
560.02	92.165
560.23	91.906
560.43	93.353
560.63	91.865
560.84	93.894
561.04	91.823
561.24	92.827
561.45	95.483
561.65	96.264
561.85	95.029
562.06	96.081
562.26	96.748
562.47	96.967
562.67	96.872
562.87	95.057
563.08	94.143
563.28	94.771
563.48	94.127
563.69	93.588
563.89	94.040
564.09	92.466
564.30	92.853
564.50	93.007
564.70	94.911
564.91	94.703
565.11	92.557
565.31	91.702
565.52	91.253
565.72	93.769
565.92	91.396
566.13	91.687
566.33	91.765
566.53	90.902
566.74	90.847
566.94	91.638
567.14	94.217
567.35	93.578
567.55	93.140
567.75	93.948
567.96	95.969
568.16	95.483
568.36	95.685
568.57	93.893
568.77	93.992
568.97	93.981
569.18	93.453
569.38	93.636
569.58	93.889
569.79	93.605
569.99	92.428
570.19	93.209
570.39	92.449
570.60	93.719
570.80	96.660
571.00	99.348
571.21	98.154
571.41	99.039
571.61	97.380
571.82	94.913
572.02	95.412
572.22	96.184
572.42	96.452
572.63	98.470
572.83	101.056
573.03	99.231
573.24	98.351
573.44	95.251
573.64	94.234
573.84	93.302
574.05	92.538
574.25	92.119
574.45	91.989
574.66	92.021
574.86	92.217
575.06	94.716
575.26	95.188
575.47	96.051
575.67	95.093
575.87	95.971
576.07	94.278
576.28	93.584
576.48	91.280
576.68	91.865
576.88	94.639
577.09	94.986
577.29	96.467
577.49	96.789
577.69	97.195
577.90	94.262
578.10	95.263
578.30	92.308
578.50	91.360
578.71	94.202
578.91	96.468
579.11	96.431
579.31	95.387
579.52	96.629
579.72	96.880
579.92	95.925
580.12	98.556
580.33	97.062
580.53	97.711
580.73	96.402
580.93	95.949
581.13	95.671
581.34	92.136
581.54	90.993
581.74	90.846
581.94	90.384
582.15	90.590
582.35	91.101
582.55	90.812
582.75	90.304
582.95	93.429
583.16	94.188
583.36	93.420
583.56	92.661
583.76	90.554
583.96	91.309
584.17	90.901
584.37	91.830
584.57	92.730
584.77	93.372
584.97	91.931
585.18	91.914
585.38	90.452
585.58	88.103
585.78	86.756
585.98	86.895
586.19	88.056
586.39	89.686
586.59	90.950
586.79	90.392
586.99	90.078
587.20	92.381
587.40	92.064
587.60	90.531
587.80	89.131
588.00	87.867
588.20	88.894
588.41	88.882
588.61	87.649
588.81	84.508
589.01	81.938
589.21	78.817
589.41	74.686
589.62	69.756
589.82	65.261
590.02	60.702
590.22	58.508
590.42	55.986
590.62	52.917
590.83	50.020
591.03	47.787
591.23	45.906
591.43	42.918
591.63	41.315
591.83	38.627
592.03	34.346
592.24	30.958
592.44	27.453
592.64	23.154
592.84	20.602
593.04	17.556
593.24	15.932
593.44	13.953
593.65	12.086
593.85	10.265
594.05	9.653
594.25	8.166
594.45	6.882
594.65	5.187
594.85	4.572
595.06	3.904
595.26	2.656
595.46	2.523
595.66	2.294
595.86	2.326
596.06	1.836
596.26	1.746
596.46	1.337
596.66	1.412
596.87	1.381
597.07	0.986
597.27	1.160
597.47	1.199
597.67	1.206
597.87	1.135
598.07	0.893
598.27	1.229
598.47	0.886
598.67	1.476
598.88	1.259
599.08	1.083
599.28	1.112
599.48	1.054
599.68	0.948
599.88	0.780
600.08	0.593
600.28	1.166
600.48	1.119
600.68	0.818
600.88	0.619
601.09	1.108
601.29	0.824
601.49	0.850
601.69	0.939
601.89	0.920
602.09	0.859
602.29	0.932
602.49	0.749
602.69	0.896
602.89	0.660
603.09	1.090
603.29	0.621
603.49	0.522
603.69	0.592
603.90	0.788
604.10	0.572
604.30	0.541
604.50	0.384
604.70	0.856
604.90	0.663
605.10	0.727
605.30	0.939
605.50	0.752
605.70	0.585
605.90	0.897
606.10	0.789
606.30	0.646
606.50	0.514
606.70	0.678
606.90	0.791
607.10	0.748
607.30	0.819
607.50	0.722
607.70	0.793
607.90	0.650
608.10	0.934
608.30	0.857
608.50	1.041
608.70	0.731
608.90	0.918
609.11	0.751
609.31	0.809
609.51	0.754
609.71	0.841
609.91	0.931
610.11	1.224
610.31	1.100
610.51	1.477
610.71	2.212
610.91	2.445
611.11	3.021
611.31	3.055
611.51	3.496
611.71	3.083
611.91	2.642
612.11	2.657
612.31	2.393
612.51	2.385
612.71	2.197
612.91	2.356
613.11	1.931
613.31	2.091
613.51	1.715
613.71	1.851
613.91	1.602
614.11	1.527
614.31	1.373
614.50	1.414
614.70	1.420
614.90	1.428
615.10	1.136
615.30	1.333
615.50	1.462
615.70	1.185
615.90	1.304
616.10	0.998
616.30	1.256
616.50	1.023
616.70	1.066
616.90	0.863
617.10	1.055
617.30	0.911
617.50	1.149
617.70	0.962
617.90	0.716
618.10	0.990
618.30	0.912
618.50	0.730
618.70	1.134
618.90	0.819
619.10	0.897
619.30	0.862
619.49	0.831
619.69	1.119
619.89	1.066
620.09	1.028
620.29	1.246
620.49	0.784
620.69	0.988
620.89	0.954
621.09	1.292
621.29	1.158
621.49	1.079
621.69	1.189
621.89	1.058
622.09	0.982
622.29	1.204
622.48	1.352
622.68	1.059
622.88	0.920
623.08	1.107
623.28	0.998
623.48	1.051
623.68	1.013
623.88	1.073
624.08	1.175
624.28	1.289
624.48	1.162
624.67	1.462
624.87	1.372
625.07	1.478
625.27	1.121
625.47	1.114
625.67	1.087
625.87	1.508
626.07	1.454
626.27	1.667
626.47	2.000
626.66	1.995
626.86	1.878
627.06	2.217
627.26	2.568
627.46	3.003
627.66	3.553
627.86	3.953
628.06	4.469
628.25	5.418
628.45	6.178
628.65	6.754
628.85	8.069
629.05	8.866
629.25	9.656
629.45	11.170
629.65	12.488
629.84	13.698
630.04	14.817
630.24	16.156
630.44	17.657
630.64	19.035
630.84	20.273
631.04	21.513
631.23	22.971
631.43	23.937
631.63	24.873
631.83	27.048
632.03	28.483
632.23	29.976
632.42	30.833
632.62	32.278
632.82	33.405
633.02	34.819
633.22	36.601
633.42	37.128
633.62	38.708
633.81	39.417
634.01	39.908
634.21	41.335
634.41	40.933
634.61	41.220
634.80	43.038
635.00	43.661
635.20	43.568
635.40	45.218
635.60	45.327
635.80	46.225
635.99	46.643
636.19	48.043
636.39	50.095
636.59	51.372
636.79	52.703
636.98	54.824
637.18	56.116
637.38	59.775
637.58	64.531
637.78	67.482
637.97	69.314
638.17	71.516
638.37	73.315
638.57	74.142
638.77	75.202
638.96	75.611
639.16	76.825
639.36	79.377
639.56	80.908
639.76	83.444
639.95	84.846
640.15	86.951
640.35	87.165
640.55	87.608
640.75	89.055
640.94	90.506
641.14	89.579
641.34	91.015
641.54	91.225
641.73	91.406
641.93	90.846
642.13	89.618
642.33	87.741
642.53	87.313
642.72	88.008
642.92	89.071
643.12	91.761
643.32	94.196
643.51	95.234
643.71	94.492
643.91	94.356
644.11	93.038
644.30	94.335
644.50	93.039
644.70	91.018
644.90	91.207
645.09	90.998
645.29	91.410
645.49	90.856
645.69	91.023
645.88	92.527
646.08	92.564
646.28	92.815
646.48	93.071
646.67	93.534
646.87	94.956
647.07	96.679
647.26	95.990
647.46	94.811
647.66	94.542
647.86	96.311
648.05	96.691
648.25	97.787
648.45	100.436
648.65	100.693
648.84	100.120
649.04	100.977
649.24	99.763
649.43	97.676
649.63	97.935
649.83	96.339
650.03	95.124
650.22	94.970
650.42	96.029
650.62	96.549
650.81	94.344
651.01	94.791
651.21	94.263
651.40	93.058
651.60	92.597
651.80	93.507
652.00	93.026
652.19	93.183
652.39	92.932
652.59	92.831
652.78	92.545
652.98	91.591
653.18	91.771
653.37	90.833
653.57	91.771
653.77	91.817
653.96	93.826
654.16	95.832
654.36	96.229
654.55	94.146
654.75	92.522
654.95	91.974
655.14	90.673
655.34	92.506
655.54	92.734
655.73	91.927
655.93	91.728
656.13	90.746
656.32	92.580
656.52	95.088
656.72	94.384
656.91	94.190
657.11	94.836
657.31	93.448
657.50	92.240
657.70	92.523
657.90	94.103
658.09	95.013
658.29	94.425
658.49	93.415
658.68	94.766
658.88	94.652
659.07	95.827
659.27	95.048
659.47	94.590
659.66	95.952
659.86	96.895
660.06	98.200
660.25	96.525
660.45	97.510
660.64	97.686
660.84	95.854
661.04	95.946
661.23	95.038
661.43	95.740
661.63	95.555
661.82	93.875
662.02	94.738
662.21	93.885
662.41	94.556
662.61	94.336
662.80	94.170
663.00	93.813
663.19	93.209
663.39	92.097
663.59	93.119
663.78	93.858
663.98	94.848
664.17	97.226
664.37	97.410
664.57	96.320
664.76	97.182
664.96	92.380
665.15	90.946
665.35	89.225
665.55	87.933
665.74	86.663
665.94	86.989
666.13	88.169
666.33	87.879
666.53	88.982
666.72	90.035
666.92	91.251
667.11	94.357
667.31	92.618
667.50	93.543
667.70	92.784
667.90	94.135
668.09	93.545
668.29	94.094
668.48	95.780
668.68	96.993
668.87	98.351
669.07	95.990
669.26	95.745
669.46	97.589
669.66	98.849
669.85	99.126
670.05	99.181
670.24	97.940
670.44	98.369
670.63	98.860
670.83	97.973
671.02	96.650
671.22	93.688
671.42	94.092
671.61	94.572
671.81	93.827
672.00	93.513
672.20	90.929
672.39	91.446
672.59	90.616
672.78	92.081
672.98	91.212
673.17	91.476
673.37	91.126
673.56	90.223
673.76	91.271
673.95	93.442
674.15	94.144
674.34	94.834
674.54	94.112
674.73	90.567
674.93	90.756
675.13	88.992
675.32	89.563
675.52	89.351
675.71	90.889
675.91	90.558
676.10	90.638
676.30	89.681
676.49	88.443
676.69	87.402
676.88	88.095
677.08	88.583
677.27	87.888
677.47	87.921
677.66	89.698
677.86	89.684
678.05	90.281
678.24	91.029
678.44	89.502
678.63	90.254
678.83	90.391
679.02	91.217
679.22	92.461
679.41	93.492
679.61	96.870
679.80	99.927
680.00	100.563
680.19	98.597
680.39	95.441
680.58	91.540
680.78	89.613
680.97	88.572
681.17	86.609
681.36	86.020
681.56	84.367
681.75	85.353
681.94	84.215
682.14	84.289
682.33	82.490
682.53	81.211
682.72	79.095
682.92	78.931
683.11	76.483
683.31	73.930
683.50	71.048
683.69	69.052
683.89	68.533
684.08	66.910
684.28	64.188
684.47	62.492
684.67	59.876
684.86	56.657
685.06	52.694
685.25	49.422
685.44	47.364
685.64	45.327
685.83	43.606
686.03	41.919
686.22	40.227
686.42	39.413
686.61	37.041
686.80	34.649
687.00	31.605
687.19	29.717
687.39	27.520
687.58	25.274
687.77	23.028
687.97	20.474
688.16	18.714
688.36	16.707
688.55	15.153
688.74	14.098
688.94	12.659
689.13	11.727
689.33	10.529
689.52	9.073
689.71	7.724
689.91	6.857
690.10	6.033
690.30	5.448
690.49	4.595
690.68	4.004
690.88	3.553
691.07	3.324
691.27	2.665
691.46	2.478
691.65	2.188
691.85	1.938
692.04	1.635
692.23	1.659
692.43	1.432
692.62	1.246
692.82	1.078
693.01	1.059
693.20	0.999
693.40	0.817
693.59	0.874
693.78	0.832
693.98	0.544
694.17	0.726
694.36	0.670
694.56	0.410
694.75	0.555
694.94	0.512
695.14	0.607
695.33	0.587
695.53	0.373
695.72	0.593
695.91	0.542
696.11	0.524
696.30	0.493
696.49	0.540
696.69	0.497
696.88	0.315
697.07	0.564
697.27	0.193
697.46	0.284
697.65	0.561
697.85	0.452
698.04	0.374
698.23	0.466
698.43	0.350
698.62	0.464
698.81	0.439
699.01	0.278
699.20	0.463
699.39	0.329
699.58	0.554
699.78	0.304
699.97	0.328
700.16	0.250
700.36	0.270
700.55	0.219
700.74	0.376
700.94	0.348
701.13	0.397
701.32	0.211
701.52	0.428
701.71	0.273
701.90	0.237
702.09	0.233
702.29	0.226
702.48	0.504
702.67	0.389
702.87	0.097
703.06	0.243
703.25	0.481
703.44	0.340
703.64	0.135
703.83	0.370
704.02	0.241
704.22	0.073
704.41	0.271
704.60	0.290
704.79	0.194
704.99	0.236
705.18	0.148
705.37	0.313
705.56	0.321
705.76	0.262
705.95	0.266
706.14	0.138
706.33	0.100
706.53	0.138
706.72	0.154
706.91	0.118
707.11	0.294
707.30	0.103
707.49	0.387
707.68	0.083
707.88	0.371
708.07	0.100
708.26	0.157
708.45	0.060
708.64	0.384
708.84	0.293
709.03	0.258
709.22	0.390
709.41	0.125
709.61	0.059
709.80	0.142
709.99	0.077
710.18	0.456
710.38	-0.004
710.57	0.200
710.76	0.132
710.95	0.220
711.14	0.134
711.34	0.228
711.53	0.091
711.72	0.146
711.91	-0.012
712.11	0.200
712.30	0.220
712.49	-0.030
712.68	0.237
712.87	0.026
713.07	0.272
713.26	0.185
713.45	0.153
713.64	0.186
713.83	0.239
714.03	0.125
714.22	-0.017
714.41	0.065
714.60	-0.138
714.79	0.022
714.99	0.149
715.18	0.013
715.37	0.127
715.56	0.053
715.75	0.071
715.94	0.170
716.14	0.121
716.33	0.031
716.52	0.054
716.71	0.155
716.90	0.086
717.10	0.302
717.29	0.255
717.48	0.018
717.67	0.094
717.86	0.319
718.05	0.057
718.24	0.084
718.44	0.155
718.63	0.106
718.82	0.146
719.01	-0.044
719.20	0.155
719.39	0.059
719.59	-0.005
719.78	0.091
719.97	0.079
720.16	0.047
720.35	-0.089
720.54	0.088
720.73	-0.047
720.93	0.276
721.12	0.112
721.31	0.065
721.50	0.191
721.69	0.000
721.88	-0.067
722.07	0.063
722.27	-0.052
722.46	-0.133
722.65	0.138
722.84	-0.053
723.03	0.220
723.22	-0.024
723.41	0.060
723.60	-0.009
723.79	0.304
723.99	0.065
724.18	0.135
724.37	0.085
724.56	0.142
724.75	0.057
724.94	0.019
725.13	0.193
725.32	0.062
725.51	0.071
725.71	-0.080
725.90	0.095
726.09	0.024
726.28	0.085
726.47	0.010
726.66	0.149
726.85	0.069
727.04	0.104
727.23	0.000
727.42	0.164
727.61	0.068
727.81	0.253
728.00	0.159
728.19	0.144
728.38	-0.132
728.57	0.143
728.76	0.163
728.95	0.244
729.14	0.089
729.33	0.105
729.52	0.302
729.71	0.100
729.90	-0.065
730.09	-0.066
730.28	-0.065
730.48	0.122
730.67	0.020
730.86	0.000
731.05	-0.047
731.24	0.148
731.43	-0.049
731.62	0.016
731.81	0.228
732.00	0.113
732.19	0.064
732.38	-0.123
732.57	-0.005
732.76	0.111
732.95	0.000
733.14	-0.078
733.33	0.057
733.52	0.290
733.71	0.325
733.90	-0.131
734.09	0.046
734.28	-0.236
734.47	0.171
734.66	0.000
734.85	0.099
735.04	0.112
735.23	0.060
735.42	0.039
735.61	0.107
735.81	-0.175
736.00	0.034
736.19	-0.155
736.38	0.006
736.57	-0.023
736.76	0.071
736.95	-0.022
737.14	0.059
737.33	0.230
737.52	0.041
737.71	0.170
737.90	0.217
738.09	-0.239
738.28	-0.071
738.47	-0.107
738.66	-0.131
738.85	-0.215
739.04	-0.029
739.22	0.035
739.41	0.428
739.60	0.000
739.79	-0.064
739.98	0.034
740.17	0.017
740.36	0.095
740.55	0.122
740.74	-0.033
740.93	-0.049
741.12	0.028
741.31	-0.034
741.50	0.165
741.69	-0.011
741.88	0.081
742.07	-0.057
742.26	0.217
742.45	0.023
742.64	0.086
742.83	0.268
743.02	-0.112
743.21	-0.030
743.40	0.329
743.59	0.200
743.78	0.290
743.97	-0.245
744.16	0.000
744.34	0.107
744.53	0.368
744.72	0.087
744.91	0.289
745.10	0.130
745.29	0.251
745.48	0.148
745.67	0.082
745.86	0.186
746.05	0.153
746.24	0.196
746.43	-0.006
746.62	-0.019
746.81	-0.032
747.00	0.000
747.18	0.052
747.37	0.077
747.56	0.275
747.75	0.090
747.94	0.007
748.13	-0.013
748.32	0.199
748.51	0.035
748.70	-0.188
748.89	0.049
749.08	0.152
749.26	-0.116
749.45	0.185
749.64	0.222
749.83	-0.412
750.02	0.086
750.21	-0.109
750.40	0.241
750.59	0.304
750.78	0.178
750.96	0.203
751.15	0.367
751.34	0.351
751.53	-0.189
751.72	0.158
751.91	0.030
752.10	0.000
752.29	0.208
752.47	0.090
752.66	0.350
752.85	-0.154
753.04	0.190
753.23	0.152
753.42	-0.048
753.61	0.080
753.80	0.353
753.98	0.128
754.17	0.185
754.36	0.521
754.55	0.066
754.74	0.241
754.93	-0.296
755.12	-0.122
755.30	0.420
755.49	-0.082
755.68	0.361
755.87	-0.080
756.06	0.296
756.25	0.027
756.43	0.097
756.62	0.225
756.81	0.596
757.00	0.121
757.19	0.168
757.38	0.126
757.56	0.261
757.75	0.366
757.94	0.661
758.13	0.329
758.32	0.623
758.51	-0.040
758.69	0.099
758.88	0.169
759.07	-0.131
759.26	0.223
759.45	0.021
759.63	0.736
759.82	0.169
760.01	0.192
760.20	-0.109
760.39	0.164
760.57	0.055
760.76	0.311
760.95	0.802
761.14	0.382
761.33	-0.023
761.51	0.429
761.70	0.301
761.89	0.401
762.08	0.220
762.27	0.654
762.45	0.398
762.64	0.357
762.83	0.504
763.02	-0.248
763.21	0.252
763.39	0.216
763.58	-0.191
763.77	0.217
763.96	0.644
764.14	0.458
764.33	-0.273
764.52	0.132
764.71	0.374
764.89	0.413
765.08	0.195
765.27	-0.708
765.46	0.320
765.65	0.411
765.83	-0.406
766.02	-0.095
766.21	-0.054
766.40	0.202
766.58	0.027
766.77	0.570
766.96	0.449
767.15	-0.164
767.33	0.076
767.52	0.262
767.71	0.297
767.90	0.078
768.08	-0.111
768.27	-0.112
768.46	-0.338
768.64	-0.244
768.83	-0.510
769.02	-0.017
769.21	-0.842
769.39	0.204
769.58	0.582
769.77	0.548
769.96	0.205
770.14	0.085
770.33	0.979
770.52	0.525
770.70	0.324
770.89	0.463
771.08	-0.085
771.27	0.705
771.45	0.496
771.64	-0.052
771.83	0.034
772.01	0.262
772.20	0.468
772.39	0.210
772.57	0.181
772.76	0.110
772.95	1.003
773.14	0.334
773.32	0.037
773.51	-1.157
773.70	-0.132
773.88	0.058
774.07	-0.117
774.26	0.949
774.44	0.592
774.63	0.517
774.82	0.176
775.00	0.339
775.19	0.361
775.38	-0.282
775.56	-0.114
775.75	0.058
775.94	-0.709
776.12	0.196
776.31	0.581
776.50	1.218
776.68	0.867
776.87	1.147
777.06	-0.955
777.24	-0.041
777.43	0.308
777.62	0.472
777.80	0.430
777.99	0.311
778.18	1.043
778.36	0.125
778.55	0.062
778.74	0.268
778.92	-0.042
779.11	0.892
779.29	-0.531
779.48	0.882
779.67	-0.533
779.85	0.604
780.04	0.082
780.23	0.636
780.41	0.751
780.60	0.224
780.79	-0.080
780.97	0.200
781.16	0.315
781.34	-0.437
781.53	-0.179
781.72	0.450
781.90	-0.117
782.09	0.563
782.28	0.602
782.46	0.961
782.65	0.450
782.83	0.222
783.02	-0.482
783.21	0.455
783.39	-0.079
783.58	-0.116
783.76	0.325
783.95	-0.460
784.14	0.299
784.32	-0.332
784.51	-0.563
784.69	-0.090
784.88	0.600
785.06	-0.868
785.25	-0.125
785.44	-0.319
785.62	0.211
785.81	-0.145
785.99	-0.325
786.18	-0.536
786.37	-0.241
786.55	0.096
786.74	-0.152
786.92	-0.316
787.11	0.416
787.29	-0.138
787.48	0.557
787.67	1.143
787.85	-0.253
788.04	0.851
788.22	0.501
788.41	0.486
788.59	0.752
788.78	0.113
788.96	0.135
789.15	-0.366
789.34	0.382
789.52	-0.231
789.71	0.379
789.89	0.700
790.08	0.037
790.26	-0.054
790.45	-0.441
790.63	-0.286
790.82	-0.403
791.00	0.122
791.19	0.567
791.38	0.271
791.56	-0.018
791.75	-0.247
791.93	0.384
792.12	0.987
792.30	-0.035
792.49	-0.172
792.67	0.758
792.86	-0.184
793.04	0.322
793.23	-0.466
793.41	-0.571
793.60	0.867
793.78	0.949
793.97	-0.313
794.15	1.078
794.34	0.343
794.52	0.641
794.71	0.017
794.89	0.400
795.08	-0.650
795.26	-0.227
795.45	0.110
795.63	0.093
795.82	0.268
796.00	0.074
796.19	0.103
796.37	-0.239
796.56	-0.134
796.74	0.435
796.93	0.654
797.11	0.160
797.30	0.835
797.48	0.347
797.67	0.331
797.85	-0.029
798.04	1.427
798.22	-0.060
798.41	-0.260
798.59	0.338
798.77	-0.474
798.96	0.108
799.14	-0.540
799.33	0.514
799.51	-0.332
799.70	-0.090
799.88	-0.515
800.07	-0.567
800.25	-0.044
800.44	-0.059
800.62	0.206
800.80	0.937
800.99	-0.311
801.17	-0.237
801.36	0.741
801.54	-0.015
801.73	-0.426
801.91	0.146
802.10	-0.420
802.28	0.509
802.46	0.733
802.65	0.086
802.83	0.448
803.02	0.286
803.20	0.270
803.39	0.116
803.57	-0.194
803.75	-0.030
803.94	0.061
804.12	0.031
804.31	0.125
804.49	0.208
804.67	-0.164
804.86	0.655
805.04	-0.017
805.23	0.720
805.41	0.067
805.59	0.081
805.78	-0.719
805.96	0.171
806.15	-0.108
806.33	0.062
806.51	-0.122
806.70	-0.320
806.88	-0.122
807.07	1.267
807.25	0.111
807.43	-0.111
807.62	0.510
807.80	0.287
807.99	-0.141
808.17	-0.278
808.35	-0.535
808.54	0.472
808.72	0.953
808.90	0.060
809.09	0.481
809.27	0.211
809.46	0.342
809.64	-0.439
809.82	0.108
810.01	-0.247
810.19	0.368
810.37	-0.179
810.56	-0.134
810.74	0.120
810.92	0.180
811.11	0.359
811.29	-0.046
811.48	-0.140
811.66	0.583
811.84	0.677
812.03	0.180
812.21	0.639
812.39	0.647
812.58	0.378
812.76	-0.627
812.94	0.193
813.13	0.321
813.31	0.599
813.49	0.915
813.68	0.998
813.86	0.584
814.04	0.417
814.23	1.212
814.41	-0.030
814.59	0.519
814.78	-0.118
814.96	0.573
815.14	0.888
815.33	0.531
815.51	-0.216
815.69	1.151
815.87	0.160
816.06	-0.097
816.24	0.066
816.42	1.137
816.61	-0.189
816.79	-0.365
816.97	-0.725
817.16	-0.786
817.34	1.358
817.52	0.171
817.70	0.188
817.89	0.520
818.07	0.479
818.25	0.661
818.44	0.199
818.62	0.393
818.80	0.425
818.98	0.427
819.17	-0.236
819.35	0.186
819.53	0.092
819.72	-0.057
819.90	1.250
820.08	0.155
820.26	-0.251
820.45	0.756
820.63	-0.338
820.81	0.318
820.99	1.022
821.18	0.197
821.36	0.646
821.54	0.905
821.73	0.387
821.91	0.959
822.09	-0.179
822.27	-0.399
822.46	0.164
822.64	1.316
822.82	1.196
823.00	0.170
823.19	1.366
823.37	-0.301
823.55	0.280
823.73	-0.067
823.91	0.136
824.10	0.299
824.28	0.961
824.46	1.073
824.64	0.548
824.83	0.000
825.01	0.884
825.19	0.825
825.37	-0.096
825.56	0.654
825.74	0.231
825.92	-0.045
826.10	0.022
826.28	1.069
826.47	2.144
826.65	1.213
826.83	0.309
827.01	1.482
827.19	1.346
827.38	1.661
827.56	2.687
827.74	2.211
827.92	1.421
828.10	2.045
828.29	-0.517
828.47	2.979
828.65	0.549
828.83	3.151
829.01	0.123
829.20	1.859
829.38	-0.285
829.56	1.707
829.74	1.262
829.92	3.922
830.10	2.791
830.29	0.709
830.47	2.285
830.65	0.748
830.83	1.880
831.01	1.889
831.20	3.321
831.38	0.868
831.56	0.853
831.74	1.596
831.92	1.931
832.10	2.257
832.29	1.081
832.47	2.124
832.65	1.669
832.83	0.992
833.01	2.223
833.19	2.156
833.37	2.403
833.56	2.100
833.74	1.780
833.92	2.779
834.10	1.361
834.28	1.851
834.46	2.087
834.64	2.347
834.83	3.019
835.01	2.273
835.19	2.321
835.37	1.663
835.55	1.512
835.73	2.241
835.91	2.297
836.09	2.245
836.28	4.555
836.46	5.495
836.64	4.237
836.82	4.085
837.00	4.526
837.18	5.548
837.36	6.527
837.54	6.457
837.72	7.579
837.91	7.277
838.09	7.618
838.27	8.312
838.45	9.189
838.63	10.224
838.81	9.934
838.99	10.326
839.17	12.463
839.35	12.295
839.53	13.913
839.72	15.050
839.90	15.645
840.08	13.960
840.26	15.239
840.44	14.329
840.62	13.868
840.80	16.528
840.98	16.530
841.16	17.727
841.34	17.714
841.52	17.488
841.70	18.082
841.89	19.836
842.07	19.616
842.25	19.652
842.43	19.142
842.61	19.074
842.79	19.586
842.97	19.075
843.15	20.511
843.33	20.529
843.51	21.928
843.69	23.758
843.87	25.110
844.05	24.565
844.23	25.594
844.41	25.705
844.59	24.232
844.77	25.302
844.95	25.762
845.13	26.948
845.31	28.508
845.50	27.923
845.68	25.623
845.86	27.329
846.04	27.561
846.22	28.015
846.40	27.229
846.58	25.935
846.76	27.537
846.94	25.264
847.12	25.116
847.30	24.562
847.48	26.885
847.66	26.306
847.84	25.256
848.02	25.130
848.20	26.893
848.38	24.887
848.56	25.236
848.74	24.852
848.92	26.889
849.10	26.217
849.28	25.102
849.46	26.003
849.64	27.258
849.82	24.741
850.00	25.573
850.18	23.861
850.36	23.804
850.54	22.475
850.72	20.658
850.90	19.898
851.08	21.476
851.26	22.079
851.44	21.889
851.62	19.340
851.80	18.982
851.98	18.982
852.16	19.436
852.34	18.186
852.52	17.625
852.70	16.743
852.87	15.008
853.05	14.403
853.23	14.800
853.41	13.962
853.59	14.532
853.77	13.455
853.95	13.970
854.13	14.402
854.31	13.214
854.49	13.392
854.67	11.714
854.85	12.723
855.03	13.043
855.21	12.163
855.39	14.495
855.57	14.007
855.75	15.617
855.93	16.111
856.11	13.635
856.28	17.189
856.46	18.820
856.64	17.731
856.82	19.904
857.00	18.734
857.18	21.074
857.36	21.139
857.54	24.301
857.72	25.128
857.90	25.959
858.08	27.981
858.26	26.365
858.44	31.188
858.61	29.336
858.79	34.066
858.97	33.692
859.15	32.772
859.33	34.394
859.51	35.673
859.69	36.435
859.87	35.529
860.05	33.908
860.23	39.239
860.40	38.287
860.58	37.354
860.76	38.530
860.94	39.093
861.12	35.955
861.30	38.711
861.48	32.332
861.66	34.567
861.84	33.384
862.01	33.087
862.19	31.511
862.37	30.862
862.55	29.066
862.73	30.187
862.91	27.572
863.09	28.523
863.27	26.276
863.44	25.904
863.62	24.358
863.80	22.691
863.98	21.668
864.16	19.742
864.34	20.572
864.52	19.138
864.69	21.398
864.87	19.593
865.05	20.941
865.23	20.878
865.41	21.524
865.59	24.646
865.76	21.413
865.94	20.940
866.12	22.409
866.30	22.677
866.48	22.426
866.66	22.040
866.83	24.383
867.01	22.472
867.19	24.413
867.37	23.751
867.55	22.779
867.73	20.201
867.90	23.670
868.08	23.264
868.26	23.686
868.44	23.867
868.62	23.276
868.79	23.798
868.97	25.912
869.15	26.572
869.33	24.632
869.51	26.932
869.69	27.142
869.86	23.864
870.04	25.782
870.22	24.628
870.40	26.376
870.57	24.774
870.75	23.144
870.93	22.392
871.11	21.114
871.29	23.132
871.46	21.237
871.64	22.665
871.82	21.219
872.00	21.916
872.18	21.872
872.35	21.592
872.53	21.744
872.71	20.763
872.89	20.718
873.06	20.969
873.24	19.377
873.42	19.935
873.60	22.462
873.77	20.668
873.95	20.496
874.13	18.372
874.31	21.101
874.49	21.086
874.66	20.536
874.84	21.030
875.02	19.732
875.20	19.900
875.37	18.595
875.55	19.279
875.73	20.760
875.91	19.184
876.08	18.560
876.26	21.762
876.44	20.593
876.61	19.668
876.79	20.029
876.97	17.686
877.15	19.344
877.32	19.882
877.50	18.865
877.68	17.532
877.86	18.194
878.03	18.300
878.21	18.176
878.39	18.000
878.56	19.726
878.74	19.645
878.92	20.870
879.10	18.452
879.27	19.276
879.45	18.908
879.63	20.199
879.80	19.769
879.98	20.551
880.16	21.597
880.34	20.985
880.51	22.147
880.69	24.192
880.87	23.928
881.04	25.268
881.22	25.911
881.40	24.228
881.57	26.063
881.75	26.931
881.93	27.408
882.10	28.609
882.28	30.395
882.46	27.521
882.63	30.228
882.81	31.382
882.99	33.728
883.16	33.193
883.34	31.921
883.52	33.599
883.69	31.374
883.87	34.329
884.05	33.236
884.22	33.848
884.40	36.435
884.58	35.345
884.75	36.499
884.93	37.508
885.11	38.478
885.28	38.770
885.46	38.880
885.64	40.437
885.81	40.846
885.99	42.199
886.17	42.639
886.34	43.095
886.52	39.606
886.70	44.405
886.87	41.358
887.05	42.812
887.22	43.133
887.40	40.120
887.58	40.756
887.75	41.450
887.93	43.556
888.11	44.452
888.28	45.031
888.46	41.010
888.63	41.822
888.81	43.200
888.99	43.766
889.16	44.378
889.34	44.020
889.51	42.817
889.69	44.189
889.87	42.511
890.04	42.584
890.22	42.760
890.39	44.863
890.57	42.949
890.75	40.858
890.92	43.493
891.10	43.331
891.27	46.849
891.45	45.165
891.63	44.748
891.80	45.783
891.98	45.521
892.15	44.978
892.33	46.111
892.51	46.847
892.68	47.603
892.86	48.428
893.03	45.817
893.21	50.466
893.38	51.512
893.56	50.611
893.74	57.332
893.91	58.285
894.09	55.657
894.26	57.540
894.44	62.288
894.61	60.658
894.79	62.731
894.96	64.129
895.14	62.648
895.32	67.376
895.49	68.267
895.67	67.185
895.84	67.440
896.02	68.898
896.19	66.073
896.37	66.389
896.54	67.515
896.72	66.347
896.89	65.531
897.07	63.696
897.25	63.232
897.42	64.111
897.60	66.756
897.77	66.321
897.95	66.905
898.12	68.328
898.30	65.237
898.47	67.987
898.65	63.226
898.82	63.599
899.00	62.650
899.17	59.734
899.35	63.261
899.52	60.206
899.70	59.454
899.87	58.462
900.05	57.844
900.22	60.583
900.40	59.672
900.57	60.015
900.75	56.353
900.92	61.472
901.10	58.216
901.27	55.135
901.45	56.075
901.62	55.925
901.80	54.225
901.97	53.326
902.15	53.589
902.32	53.135
902.50	54.114
902.67	57.148
902.85	56.692
903.02	58.562
903.20	56.124
903.37	58.364
903.54	55.057
903.72	55.590
903.89	57.919
904.07	58.726
904.24	59.179
904.42	62.215
904.59	62.463
904.77	63.078
904.94	60.989
905.12	63.285
905.29	62.327
905.47	60.953
905.64	61.678
905.81	61.976
905.99	67.886
906.16	64.798
906.34	66.214
906.51	65.735
906.69	68.524
906.86	69.434
907.03	72.328
907.21	71.857
907.38	74.566
907.56	67.423
907.73	71.371
907.91	75.442
908.08	70.603
908.25	71.550
908.43	72.538
908.60	72.160
908.78	76.232
908.95	73.143
909.13	74.797
909.30	72.597
909.47	73.274
909.65	73.508
909.82	69.616
910.00	72.852
910.17	70.625
910.34	72.782
910.52	70.765
910.69	69.046
910.87	70.617
911.04	71.740
911.21	68.682
911.39	64.854
911.56	66.441
911.73	66.681
911.91	68.030
912.08	63.315
912.26	66.966
912.43	64.395
912.60	66.815
912.78	65.907
912.95	63.085
913.13	63.485
913.30	61.989
913.47	67.745
913.65	62.482
913.82	63.038
913.99	62.020
914.17	61.816
914.34	60.876
914.51	60.951
914.69	56.762
914.86	56.703
915.03	58.156
915.21	57.675
915.38	55.067
915.56	59.027
915.73	62.758
915.90	61.344
916.08	63.559
916.25	63.294
916.42	62.942
916.60	59.926
916.77	62.701
916.94	66.321
917.12	67.136
917.29	65.361
917.46	66.090
917.64	68.869
917.81	65.512
917.98	66.650
918.16	68.665
918.33	70.554
918.50	70.117
918.67	67.166
918.85	70.087
919.02	67.403
919.19	67.297
919.37	69.196
919.54	66.930
919.71	61.626
919.89	64.483
920.06	60.718
920.23	59.001
920.41	58.675
920.58	62.280
920.75	61.605
920.92	58.333
921.10	63.161
921.27	59.211
921.44	62.603
921.62	67.295
921.79	60.453
921.96	62.361
922.13	59.866
922.31	62.914
922.48	63.420
922.65	60.438
922.82	57.611
923.00	53.823
923.17	55.912
923.34	54.266
923.52	55.123
923.69	53.270
923.86	51.532
924.03	52.500
924.21	53.402
924.38	50.506
924.55	51.615
924.72	51.123
924.90	54.665
925.07	54.731
925.24	54.031
925.41	50.900
925.59	50.990
925.76	49.033
925.93	53.897
926.10	54.413
926.28	51.433
926.45	52.825
926.62	46.807
926.79	51.299
926.96	44.733
927.14	48.839
927.31	50.485
927.48	49.090
927.65	48.707
927.83	49.439
928.00	46.276
928.17	48.327
928.34	45.756
928.51	48.306
928.69	45.819
928.86	49.462
929.03	47.136
929.20	47.146
929.37	50.908
929.55	50.919
929.72	49.184
929.89	47.567
930.06	50.124
930.23	44.716
930.41	46.553
930.58	48.379
930.75	48.253
930.92	46.766
931.09	51.592
931.27	48.371
931.44	48.793
931.61	48.261
931.78	43.127
931.95	46.948
932.12	45.447
932.30	43.482
932.47	43.081
932.64	46.649
932.81	44.483
932.98	44.861
933.16	41.325
933.33	47.340
933.50	46.807
933.67	43.642
933.84	44.756
934.01	44.063
934.18	42.522
934.36	39.924
934.53	45.078
934.70	43.762
934.87	36.493
935.04	38.505
935.21	41.060
935.38	40.523
935.56	39.092
935.73	37.711
935.90	37.283
936.07	37.857
936.24	35.881
936.41	37.079
936.58	37.378
936.76	39.304
936.93	41.734
937.10	43.987
937.27	43.598
937.44	39.545
937.61	43.538
937.78	41.735
937.95	40.702
938.13	46.975
938.30	50.110
938.47	39.162
938.64	50.674
938.81	47.115
938.98	44.139
939.15	42.000
939.32	49.036
939.49	40.430
939.66	43.275
939.84	42.269
940.01	42.687
940.18	48.826
940.35	40.219
940.52	37.414
940.69	39.562
940.86	41.866
941.03	43.623
941.20	34.031
941.37	40.592
941.54	47.914
941.71	39.195
941.89	43.786
942.06	42.178
942.23	40.544
942.40	45.402
942.57	45.818
942.74	47.204
942.91	42.058
943.08	50.635
943.25	49.811
943.42	50.983
943.59	45.085
943.76	47.638
943.93	49.659
944.10	53.836
944.27	45.576
944.44	49.354
944.61	53.508
944.79	55.634
944.96	49.331
945.13	51.369
945.30	54.201
945.47	59.178
945.64	51.779
945.81	54.432
945.98	57.103
946.15	55.898
946.32	60.640
946.49	63.054
946.66	66.206
946.83	55.357
947.00	66.188
947.17	61.448
947.34	63.610
947.51	58.959
947.68	65.457
947.85	69.369
948.02	67.679
948.19	67.568
948.36	67.174
948.53	73.356
948.70	74.910
948.87	75.041
949.04	68.101
949.21	67.657
949.38	72.109
949.55	69.877
949.72	72.323
949.89	61.719
950.06	73.898
950.23	71.212
950.40	67.496
950.57	76.577
950.74	70.495
950.91	67.096
951.08	71.254
951.25	80.608
951.42	82.609
951.59	71.067
951.76	73.131
951.93	76.799
952.10	75.000
952.27	72.588
952.44	73.878
952.61	87.097
952.77	73.245
952.94	77.846
953.11	74.286
953.28	79.623
953.45	82.114
953.62	68.240
953.79	75.741
953.96	63.672
954.13	77.203
954.30	75.403
954.47	76.106
954.64	81.154
954.81	78.471
954.98	65.009
955.15	82.600
955.32	66.608
955.49	72.798
955.65	68.000
955.82	69.450
955.99	71.836
956.16	77.120
956.33	74.751
956.50	62.062
956.67	61.368
956.84	58.989
957.01	67.413
957.18	68.986
957.35	59.073
957.52	63.052
957.68	63.393
957.85	76.809
958.02	73.684
958.19	63.415
958.36	68.246
958.53	67.448
958.70	58.030
958.87	68.456
959.04	68.974
959.21	64.978
959.37	83.636
959.54	74.253
959.71	73.934
959.88	74.837
960.05	72.684
960.22	70.146
960.39	64.493
960.56	74.342
960.72	71.310
960.89	71.338
961.06	66.875
961.23	66.667
961.40	65.036
961.57	62.731
961.74	61.858
961.90	65.657
962.07	63.502
962.24	67.300
962.41	72.185
962.58	70.726
962.75	69.038
962.92	69.717
963.08	74.382
963.25	75.705
963.42	78.897
963.59	62.288
963.76	54.176
963.93	59.633
964.10	63.023
964.26	64.435
964.43	57.275
964.60	65.412
964.77	75.231
964.94	69.104
965.10	58.058
965.27	52.632
965.44	58.770
965.61	66.576
965.78	61.364
965.95	57.757
966.11	67.281
966.28	65.097
966.45	58.011
966.62	57.692
966.79	50.794
966.95	58.145
967.12	63.514
967.29	67.347
967.46	57.014
967.63	61.915
967.79	65.727
967.96	56.416
968.13	56.335
968.30	53.740
968.47	52.083
968.63	57.356
968.80	59.519
968.97	61.959
969.14	54.059
969.31	53.632
969.47	54.389
969.64	53.707
969.81	54.757
969.98	54.167
970.14	60.304
970.31	48.261
970.48	46.429
970.65	51.765
970.81	60.417
970.98	53.105
971.15	41.719
971.32	56.667
971.48	46.593
971.65	59.030
971.82	43.792
971.99	44.180
972.15	49.644
972.32	37.324
972.49	38.380
972.66	47.991
972.82	45.147
972.99	40.941
973.16	41.453
973.33	46.445
973.49	38.035
973.66	49.471
973.83	45.153
974.00	52.027
974.16	48.864
974.33	46.089
974.50	50.725
974.67	43.457
974.83	54.722
975.00	46.651
975.17	53.103
975.33	49.766
975.50	49.194
975.67	54.608
975.84	48.718
976.00	42.824
976.17	46.824
976.34	45.980
976.50	55.525
976.67	33.028
976.84	34.439
977.00	48.936
977.17	52.676
977.34	44.258
977.50	52.815
977.67	49.087
977.84	44.126
978.01	38.482
978.17	53.652
978.34	57.816
978.51	42.373
978.67	48.165
978.84	28.966
979.01	39.151
979.17	46.526
979.34	27.461
979.51	35.500
979.67	45.631
979.84	37.767
980.01	38.497
980.17	41.954
980.34	39.063
980.51	49.423
980.67	38.182
980.84	35.258
981.01	23.990
981.17	35.490
981.34	33.895
981.50	31.971
981.67	38.213
981.84	36.430
982.00	39.691
982.17	21.628
982.34	27.336
982.50	39.228
982.67	27.390
982.84	29.907
983.00	33.943
983.17	33.945
983.33	26.444
983.50	26.682
983.67	26.432
983.83	18.263
984.00	27.885
984.17	19.528
984.33	30.750
984.50	19.450
984.66	26.031
984.83	26.068
985.00	30.444
985.16	21.519
985.33	27.955
985.49	18.684
985.66	27.790
985.83	41.393
985.99	28.986
986.16	27.984
986.32	28.112
986.49	31.448
986.66	28.929
986.82	32.096
986.99	25.175
987.15	38.318
987.32	22.170
987.49	21.041
987.65	27.739
987.82	24.742
987.98	29.108
988.15	35.115
988.31	27.187
988.48	37.441
988.65	36.508
988.81	41.611
988.98	22.485
989.14	26.540
989.31	33.004
989.47	30.288
989.64	26.351
989.80	31.925
989.97	24.459
990.14	38.723
990.30	31.490
990.47	29.126
990.63	33.875
990.80	42.474
990.96	47.926
991.13	30.134
991.29	42.043
991.46	37.055
991.62	40.233
991.79	38.413
991.95	32.731
992.12	36.735
992.29	42.073
992.45	34.174
992.62	26.906
992.78	40.252
992.95	37.799
993.11	43.848
993.28	39.120
993.44	45.952
993.61	40.041
993.77	45.550
993.94	27.689
994.10	40.928
994.27	34.474
994.43	47.890
994.60	39.000
994.76	39.954
994.93	38.497
995.09	43.127
995.26	47.330
995.42	44.282
995.59	40.633
995.75	44.907
995.92	39.059
996.08	27.059
996.25	41.728
996.41	34.559
996.58	45.890
996.74	34.395
996.91	37.859
997.07	40.000
997.23	33.824
997.40	40.839
997.56	38.318
997.73	54.000
997.89	29.530
998.06	42.511
998.22	36.609
998.39	38.866
998.55	38.568
998.72	46.495
998.88	37.000
999.05	47.073
999.21	37.232
999.37	50.000
999.54	36.111
999.70	35.230
999.87	44.724
1000.03	46.575
1000.20	42.067
1000.36	40.288
1000.52	40.377
1000.69	54.141
1000.85	48.812
1001.02	42.922
1001.18	39.197
1001.35	54.989
1001.51	48.998
1001.67	51.002
1001.84	48.523
1002.00	51.050
1002.17	44.495
1002.33	47.541
1002.50	48.984
1002.66	52.133
1002.82	53.518
1002.99	42.933
1003.15	52.381
1003.32	55.890
1003.48	48.325
1003.64	47.837
1003.81	51.404
1003.97	47.489
1004.14	59.479
1004.30	44.717
1004.46	57.702
1004.63	45.887
1004.79	45.000
1004.95	42.674
1005.12	55.220
1005.28	44.503
1005.45	46.313
1005.61	44.988
1005.77	44.828
1005.94	56.054
1006.10	51.385
1006.26	49.640
1006.43	42.417
1006.59	46.348
1006.76	35.356
1006.92	55.529
1007.08	59.569
1007.25	40.839
1007.41	47.002
1007.57	32.108
1007.74	50.378
1007.90	45.876
1008.06	55.469
1008.23	56.667
1008.39	56.067
1008.55	51.613
1008.72	47.132
1008.88	52.667
1009.04	58.315
1009.21	52.983
1009.37	62.105
1009.53	53.717
1009.70	62.097
1009.86	61.111
1010.02	50.114
1010.19	64.286
1010.35	53.982
1010.51	61.098
1010.68	60.606
1010.84	58.268
1011.00	60.000
1011.17	56.787
1011.33	55.501
1011.49	47.175
1011.66	66.154
1011.82	49.872
1011.98	54.683
1012.14	49.863
1012.31	63.127
1012.47	64.962
1012.63	72.989
1012.80	56.085
1012.96	56.417
1013.12	56.944
1013.29	66.205
1013.45	67.363
1013.61	67.959
1013.77	63.824
1013.94	59.530
1014.10	68.485
1014.26	60.891
1014.43	64.286
1014.59	61.685
1014.75	59.326
1014.91	61.327
1015.08	53.027
1015.24	66.860
1015.40	55.000
1015.56	53.158
1015.73	60.988
1015.89	52.957
1016.05	55.687
1016.21	66.838
1016.38	62.735
1016.54	67.544
1016.70	58.824
1016.86	67.529
1017.03	51.499
1017.19	60.100
1017.35	62.500
1017.51	78.356
1017.68	62.857
1017.84	51.765
1018.00	75.457
1018.16	49.722
1018.33	63.764
1018.49	63.492
1018.65	61.308
1018.81	67.890
1018.97	61.473
1019.14	53.951
1019.30	62.890
1019.46	78.694
1019.62	50.781
1019.79	70.533
1019.95	66.581
1020.11	64.486
1020.27	69.836
1020.43	85.614
1020.60	65.152
1020.76	88.390
1020.92	78.711
1021.08	82.566
1021.24	71.118
1021.41	75.333
1021.57	80.747
1021.73	83.934
1021.89	80.263
1022.05	70.383
1022.21	70.278
1022.38	59.143
1022.54	69.914
1022.70	79.333
1022.86	67.723
1023.02	77.971
1023.19	75.000
1023.35	69.132
1023.51	61.859
1023.67	71.802
1023.83	75.191
1023.99	73.239
1024.16	76.190
1024.32	77.346
1024.48	80.851
1024.64	74.172
1024.80	75.177
1024.96	71.914
1025.12	81.505
1025.29	58.657
1025.45	70.714
1025.61	68.387
1025.77	70.397
1025.93	89.441
1026.09	84.556
1026.26	81.419
1026.42	81.967
1026.58	92.042
1026.74	89.020
1026.90	72.810
1027.06	64.686
1027.22	78.523
1027.38	78.369
1027.55	104.854
1027.71	75.291
1027.87	92.881
1028.03	88.048
1028.19	71.525
1028.35	85.609
1028.51	72.403
1028.67	70.342
1028.83	69.264
1029.00	67.931
1029.16	93.750
1029.32	80.827
1029.48	85.937
1029.64	83.934
1029.80	92.276
1029.96	113.757
1030.12	97.436
1030.28	75.439
1030.44	87.302
1030.61	101.688
1030.77	95.082
1030.93	75.397
1031.09	65.098
1031.25	103.553
1031.41	101.205
1031.57	89.451
1031.73	81.667
1031.89	92.226
1032.05	88.015
1032.21	73.469
1032.37	69.065
1032.53	88.015
1032.69	78.541
1032.86	70.192
1033.02	64.120
1033.18	71.154
1033.34	73.477
1033.50	70.466
1033.66	92.453
1033.82	72.527
1033.98	86.638
1034.14	99.539
1034.30	77.481
1034.46	86.842
1034.62	72.157
1034.78	77.206
1034.94	62.455
1035.10	73.301
1035.26	64.605
1035.42	75.497
1035.58	69.675
1035.74	77.178
1035.90	83.902
1036.06	59.176
1036.22	48.092
1036.38	69.604
1036.54	68.852
1036.70	53.750
1036.86	97.423
1037.02	68.864
1037.18	68.095
1037.34	52.778
1037.50	67.961
1037.66	62.105
1037.82	80.903
1037.98	61.649
1038.14	80.110
1038.30	68.462
1038.46	71.942
1038.62	71.362
1038.78	73.558
1038.94	84.729
1039.10	76.077
1039.26	71.552
1039.42	79.817
1039.58	57.988
1039.74	54.812
1039.90	43.000
1040.06	60.000
>>>>>End Processed Spectral Data<<<<<
