SpectraSuite Data File
++++++++++++++++++++++++++++++++++++
Date: Wed Jan 25 18:18:55 EET 2017
User: TheoProf
Dark Spectrum Present: Yes
Reference Spectrum Present: Yes
Number of Sampled Component Spectra: 1
Spectrometers: USB4C02475
Integration Time (usec): 64136 (USB4C02475)
Spectra Averaged: 1 (USB4C02475)
Boxcar Smoothing: 0 (USB4C02475)
Correct for Electrical Dark: No (USB4C02475)
Strobe/Lamp Enabled: No (USB4C02475)
Correct for Detector Non-linearity: No (USB4C02475)
Correct for Stray Light: No (USB4C02475)
Number of Pixels in Processed Spectrum: 3648
>>>>>Begin Processed Spectral Data<<<<<
344.91	125.000
345.13	125.000
345.35	125.000
345.57	92.857
345.79	-175.000
346.00	194.737
346.22	0.000
346.44	-48.276
346.66	-160.000
346.87	86.207
347.09	-920.000
347.31	110.870
347.53	-7.843
347.74	65.789
347.96	175.000
348.18	-33.333
348.40	78.947
348.61	176.923
348.83	54.545
349.05	39.344
349.27	145.833
349.48	94.118
349.70	152.941
349.92	32.258
350.14	70.492
350.35	92.593
350.57	-50.000
350.79	23.529
351.01	38.462
351.22	-30.000
351.44	69.231
351.66	-40.000
351.87	105.556
352.09	-437.500
352.31	-5.714
352.53	96.667
352.74	6.897
352.96	64.000
353.18	-9.756
353.40	450.000
353.61	16.667
353.83	436.364
354.05	140.000
354.26	112.121
354.48	-4.762
354.70	-31.579
354.92	103.846
355.13	65.517
355.35	50.943
355.57	33.333
355.78	106.452
356.00	125.000
356.22	115.068
356.44	21.875
356.65	78.846
356.87	73.077
357.09	104.000
357.30	29.592
357.52	-83.333
357.74	23.636
357.95	83.333
358.17	56.818
358.39	46.512
358.60	78.125
358.82	-53.846
359.04	320.000
359.26	-13.725
359.47	5.556
359.69	53.465
359.91	25.000
360.12	80.000
360.34	145.946
360.56	83.333
360.77	33.333
360.99	77.586
361.21	41.071
361.42	-2.128
361.64	412.500
361.86	-25.000
362.07	34.146
362.29	25.000
362.51	42.857
362.72	115.385
362.94	81.538
363.16	61.364
363.37	12.500
363.59	160.000
363.81	93.750
364.02	175.510
364.24	-400.000
364.46	107.692
364.67	600.000
364.89	-87.879
365.11	-9.259
365.32	89.286
365.54	-42.105
365.76	25.287
365.97	33.333
366.19	200.000
366.41	-50.000
366.62	102.857
366.84	-200.000
367.05	-50.909
367.27	172.727
367.49	32.258
367.70	62.857
367.92	150.000
368.14	40.476
368.35	-41.176
368.57	74.684
368.79	-13.208
369.00	104.082
369.22	140.000
369.43	87.500
369.65	75.000
369.87	31.429
370.08	50.000
370.30	-120.000
370.51	-60.000
370.73	21.212
370.95	-53.846
371.16	83.333
371.38	62.500
371.60	500.000
371.81	26.316
372.03	104.348
372.24	-1475.000
372.46	17.241
372.68	66.667
372.89	21.053
373.11	-42.373
373.32	59.259
373.54	18.421
373.76	40.816
373.97	16.216
374.19	43.590
374.40	1.724
374.62	-84.375
374.84	66.000
375.05	70.370
375.27	-10.000
375.48	29.412
375.70	58.621
375.92	38.462
376.13	110.000
376.35	-1.587
376.56	571.429
376.78	75.000
376.99	40.000
377.21	-120.930
377.43	115.385
377.64	61.039
377.86	117.857
378.07	260.000
378.29	59.091
378.51	34.568
378.72	102.740
378.94	18.571
379.15	36.842
379.37	6.000
379.58	-112.500
379.80	60.417
380.01	23.684
380.23	4.444
380.45	50.000
380.66	-39.130
380.88	0.000
381.09	-4.687
381.31	40.625
381.52	-226.087
381.74	46.316
381.95	-460.000
382.17	22.727
382.39	74.138
382.60	71.429
382.82	36.000
383.03	-6.250
383.25	8.750
383.46	63.158
383.68	-11.364
383.89	61.905
384.11	32.203
384.32	46.512
384.54	57.576
384.76	-8.696
384.97	68.627
385.19	-12.500
385.40	45.161
385.62	-31.034
385.83	-3.175
386.05	-11.667
386.26	33.333
386.48	34.426
386.69	-4.938
386.91	0.000
387.12	44.615
387.34	-7.692
387.55	-188.889
387.77	43.836
387.98	50.980
388.20	22.368
388.41	-17.143
388.63	54.000
388.84	54.412
389.06	31.818
389.27	44.554
389.49	24.615
389.70	52.941
389.92	8.929
390.13	15.306
390.35	-47.059
390.56	39.216
390.78	51.136
390.99	39.437
391.21	-4.412
391.42	4.938
391.64	-2.500
391.85	80.556
392.07	-337.500
392.28	31.148
392.50	3.333
392.71	-54.839
392.93	62.069
393.14	-6.604
393.36	8.491
393.57	51.613
393.79	-2800.000
394.00	52.941
394.22	9.722
394.43	25.806
394.65	16.129
394.86	32.692
395.08	24.051
395.29	65.882
395.50	42.683
395.72	103.226
395.93	30.827
396.15	70.161
396.36	-13.793
396.58	34.783
396.79	31.081
397.01	45.313
397.22	32.836
397.44	5.042
397.65	9.167
397.87	13.514
398.08	-1.709
398.29	-10.294
398.51	60.000
398.72	31.061
398.94	32.456
399.15	-6.931
399.37	33.582
399.58	72.340
399.80	38.235
400.01	48.810
400.22	7.407
400.44	31.111
400.65	34.559
400.87	9.483
401.08	-5.303
401.30	12.500
401.51	22.581
401.72	8.387
401.94	47.414
402.15	-10.345
402.37	-0.943
402.58	-33.333
402.80	52.055
403.01	-13.580
403.22	40.000
403.44	-17.424
403.65	48.529
403.87	29.286
404.08	8.333
404.30	-18.462
404.51	21.186
404.72	48.936
404.94	48.855
405.15	14.189
405.37	50.394
405.58	-28.571
405.79	-1.053
406.01	15.686
406.22	-12.000
406.44	10.638
406.65	3.125
406.86	7.285
407.08	8.333
407.29	-2.632
407.51	19.872
407.72	10.417
407.93	5.921
408.15	41.718
408.36	3.650
408.58	24.865
408.79	17.606
409.00	3.871
409.22	15.847
409.43	7.092
409.64	-18.750
409.86	12.963
410.07	9.494
410.29	37.850
410.50	-11.864
410.71	4.575
410.93	20.321
411.14	-4.294
411.35	37.255
411.57	-25.904
411.78	-7.692
412.00	25.874
412.21	-3.425
412.42	14.371
412.64	3.030
412.85	21.637
413.06	16.055
413.28	-16.667
413.49	2.899
413.70	10.169
413.92	0.690
414.13	21.429
414.34	2.618
414.56	-11.043
414.77	9.412
414.98	12.042
415.20	-2.312
415.41	-16.667
415.63	12.281
415.84	11.765
416.05	11.304
416.27	18.182
416.48	8.197
416.69	18.018
416.91	9.179
417.12	18.750
417.33	16.456
417.55	6.977
417.76	5.172
417.97	3.902
418.19	21.014
418.40	5.495
418.61	35.714
418.83	7.240
419.04	9.910
419.25	20.492
419.46	2.620
419.68	23.333
419.89	-16.043
420.10	-4.603
420.32	3.187
420.53	8.032
420.74	14.615
420.96	29.482
421.17	11.858
421.38	13.027
421.60	0.833
421.81	7.083
422.02	16.092
422.23	12.033
422.45	3.704
422.66	8.333
422.87	-2.672
423.09	5.727
423.30	7.407
423.51	20.664
423.73	19.481
423.94	7.958
424.15	10.425
424.36	20.313
424.58	17.647
424.79	3.960
425.00	13.028
425.22	25.667
425.43	13.406
425.64	16.234
425.85	-9.312
426.07	15.142
426.28	12.329
426.49	12.177
426.71	1.462
426.92	7.396
427.13	4.950
427.34	6.364
427.56	9.524
427.77	-3.516
427.98	-6.048
428.19	-0.386
428.41	4.096
428.62	0.342
428.83	10.028
429.04	4.348
429.26	9.735
429.47	17.231
429.68	3.385
429.89	25.298
430.11	19.010
430.32	9.499
430.53	15.952
430.74	12.112
430.96	24.869
431.17	25.641
431.38	15.484
431.59	11.621
431.81	25.000
432.02	13.764
432.23	27.045
432.44	22.051
432.66	33.240
432.87	29.179
433.08	34.954
433.29	32.995
433.51	47.304
433.72	41.452
433.93	37.762
434.14	46.948
434.35	39.467
434.57	46.122
434.78	47.711
434.99	45.259
435.20	43.301
435.42	58.197
435.63	62.177
435.84	60.103
436.05	67.549
436.26	54.247
436.48	58.131
436.69	57.660
436.90	46.065
437.11	46.182
437.32	49.061
437.54	43.243
437.75	57.058
437.96	46.707
438.17	57.518
438.38	65.663
438.60	44.216
438.81	52.008
439.02	39.130
439.23	47.778
439.44	47.070
439.66	54.286
439.87	54.070
440.08	64.463
440.29	61.434
440.50	55.534
440.72	56.752
440.93	61.676
441.14	64.627
441.35	70.930
441.56	69.697
441.77	65.189
441.99	69.652
442.20	76.882
442.41	82.111
442.62	74.655
442.83	86.318
443.04	77.414
443.26	78.628
443.47	76.992
443.68	85.354
443.89	81.584
444.10	86.559
444.31	78.040
444.53	82.972
444.74	81.962
444.95	83.183
445.16	83.389
445.37	72.977
445.58	83.387
445.80	83.037
446.01	93.700
446.22	95.726
446.43	82.362
446.64	77.335
446.85	84.733
447.06	79.516
447.28	79.971
447.49	95.440
447.70	91.284
447.91	91.554
448.12	78.267
448.33	78.207
448.54	91.190
448.76	83.215
448.97	81.664
449.18	84.814
449.39	79.632
449.60	81.601
449.81	81.101
450.02	85.472
450.23	81.901
450.45	78.816
450.66	82.013
450.87	75.610
451.08	74.752
451.29	84.423
451.50	79.183
451.71	78.693
451.92	78.922
452.13	75.746
452.35	80.463
452.56	82.522
452.77	80.774
452.98	91.233
453.19	78.416
453.40	83.858
453.61	85.772
453.82	92.228
454.03	81.595
454.25	86.065
454.46	100.134
454.67	88.517
454.88	78.144
455.09	84.157
455.30	84.204
455.51	87.229
455.72	91.882
455.93	86.494
456.14	89.523
456.35	85.442
456.56	92.327
456.78	89.549
456.99	91.169
457.20	84.496
457.41	92.191
457.62	82.854
457.83	82.308
458.04	80.376
458.25	88.808
458.46	84.290
458.67	83.252
458.88	87.859
459.09	86.424
459.30	90.556
459.51	85.154
459.73	89.894
459.94	84.698
460.15	87.730
460.36	86.776
460.57	82.718
460.78	80.783
460.99	78.166
461.20	80.529
461.41	81.127
461.62	88.970
461.83	84.983
462.04	85.775
462.25	87.191
462.46	92.909
462.67	91.227
462.88	90.901
463.09	91.815
463.30	86.723
463.51	91.027
463.72	92.078
463.93	88.445
464.15	93.056
464.36	87.008
464.57	85.703
464.78	77.460
464.99	76.532
465.20	81.905
465.41	81.132
465.62	80.143
465.83	81.474
466.04	88.898
466.25	84.895
466.46	87.970
466.67	86.169
466.88	83.431
467.09	84.099
467.30	85.695
467.51	86.139
467.72	88.108
467.93	90.722
468.14	82.967
468.35	84.758
468.56	86.753
468.77	82.456
468.98	82.394
469.19	85.110
469.40	87.605
469.61	83.849
469.82	86.302
470.03	83.558
470.24	88.659
470.45	85.608
470.66	84.223
470.87	84.837
471.08	86.334
471.29	90.225
471.50	82.291
471.71	84.716
471.92	84.931
472.13	79.811
472.34	86.594
472.55	80.526
472.76	83.531
472.97	79.436
473.18	85.133
473.39	84.181
473.60	83.635
473.81	79.644
474.01	81.481
474.22	82.097
474.43	83.128
474.64	80.030
474.85	80.218
475.06	79.223
475.27	82.411
475.48	80.509
475.69	80.613
475.90	80.382
476.11	80.545
476.32	78.786
476.53	80.225
476.74	79.300
476.95	77.482
477.16	78.855
477.37	73.857
477.58	72.356
477.79	70.124
478.00	66.414
478.21	63.040
478.41	61.579
478.62	55.726
478.83	55.667
479.04	53.285
479.25	50.435
479.46	44.602
479.67	41.853
479.88	38.637
480.09	35.008
480.30	29.634
480.51	25.811
480.72	22.302
480.93	19.216
481.14	15.283
481.34	14.094
481.55	12.492
481.76	11.199
481.97	10.208
482.18	7.779
482.39	7.131
482.60	5.850
482.81	3.706
483.02	4.009
483.23	3.421
483.44	4.039
483.65	1.749
483.85	3.995
484.06	4.050
484.27	2.234
484.48	3.564
484.69	2.502
484.90	2.419
485.11	2.712
485.32	2.385
485.53	3.479
485.73	3.576
485.94	2.689
486.15	2.111
486.36	3.442
486.57	3.778
486.78	3.236
486.99	3.111
487.20	2.992
487.41	2.999
487.61	3.005
487.82	4.545
488.03	3.737
488.24	3.149
488.45	3.100
488.66	3.033
488.87	4.635
489.08	2.947
489.28	2.383
489.49	2.416
489.70	3.233
489.91	1.773
490.12	3.159
490.33	3.448
490.54	3.247
490.74	2.489
490.95	3.241
491.16	1.546
491.37	0.703
491.58	3.234
491.79	2.521
492.00	3.162
492.20	2.747
492.41	2.606
492.62	2.768
492.83	2.737
493.04	2.817
493.25	2.210
493.45	1.954
493.66	2.665
493.87	3.126
494.08	1.418
494.29	1.998
494.50	1.672
494.70	2.781
494.91	1.551
495.12	2.429
495.33	2.005
495.54	1.279
495.75	1.615
495.95	1.335
496.16	1.652
496.37	1.511
496.58	0.132
496.79	1.675
496.99	1.506
497.20	1.798
497.41	1.540
497.62	1.840
497.83	1.252
498.04	0.750
498.24	2.073
498.45	2.561
498.66	1.512
498.87	1.947
499.08	1.384
499.28	1.530
499.49	1.618
499.70	1.133
499.91	1.020
500.12	0.795
500.32	0.254
500.53	0.484
500.74	1.218
500.95	0.767
501.15	1.551
501.36	1.802
501.57	1.599
501.78	0.600
501.99	1.323
502.19	1.037
502.40	0.612
502.61	1.166
502.82	0.727
503.02	1.331
503.23	0.760
503.44	0.681
503.65	1.695
503.86	1.228
504.06	0.971
504.27	1.705
504.48	1.210
504.69	0.806
504.89	1.107
505.10	1.304
505.31	1.550
505.52	1.318
505.72	0.566
505.93	1.508
506.14	1.426
506.35	1.090
506.55	1.728
506.76	1.003
506.97	1.444
507.18	0.633
507.38	1.749
507.59	0.958
507.80	0.534
508.01	1.056
508.21	0.350
508.42	0.084
508.63	1.657
508.84	1.457
509.04	0.692
509.25	0.699
509.46	1.163
509.67	0.988
509.87	1.633
510.08	1.017
510.29	1.013
510.49	0.329
510.70	0.867
510.91	1.151
511.12	0.610
511.32	0.874
511.53	1.304
511.74	1.193
511.94	1.346
512.15	0.713
512.36	1.535
512.57	0.737
512.77	0.211
512.98	0.851
513.19	1.360
513.39	0.438
513.60	1.481
513.81	0.894
514.01	0.700
514.22	2.349
514.43	1.297
514.64	1.703
514.84	0.523
515.05	1.419
515.26	1.446
515.46	1.625
515.67	0.886
515.88	0.858
516.08	0.722
516.29	1.736
516.50	2.049
516.70	0.750
516.91	1.169
517.12	0.979
517.32	1.440
517.53	1.478
517.74	0.998
517.95	1.158
518.15	1.704
518.36	1.907
518.57	0.971
518.77	0.794
518.98	1.679
519.19	1.227
519.39	0.726
519.60	1.048
519.80	1.798
520.01	0.500
520.22	1.517
520.42	1.486
520.63	1.166
520.84	1.230
521.04	0.906
521.25	1.148
521.46	1.300
521.66	0.868
521.87	1.187
522.08	1.989
522.28	1.388
522.49	1.426
522.70	1.480
522.90	1.399
523.11	1.668
523.31	2.275
523.52	2.930
523.73	3.301
523.93	4.047
524.14	3.588
524.35	4.200
524.55	4.995
524.76	5.201
524.97	6.599
525.17	6.786
525.38	7.979
525.58	9.106
525.79	9.928
526.00	11.300
526.20	13.074
526.41	14.812
526.61	15.019
526.82	17.757
527.03	19.266
527.23	21.742
527.44	22.767
527.64	24.612
527.85	25.710
528.06	27.342
528.26	28.814
528.47	30.665
528.68	32.757
528.88	34.897
529.09	34.675
529.29	36.298
529.50	36.773
529.70	37.536
529.91	38.333
530.12	39.892
530.32	40.753
530.53	41.246
530.73	43.129
530.94	42.019
531.15	44.191
531.35	46.164
531.56	45.368
531.76	45.808
531.97	46.774
532.17	45.568
532.38	45.874
532.59	47.041
532.79	47.813
533.00	48.136
533.20	47.984
533.41	48.890
533.61	47.977
533.82	49.797
534.03	50.477
534.23	50.591
534.44	52.165
534.64	53.459
534.85	54.173
535.05	55.455
535.26	58.681
535.46	62.084
535.67	63.375
535.88	65.648
536.08	67.018
536.29	69.509
536.49	71.588
536.70	73.402
536.90	74.547
537.11	79.675
537.31	83.833
537.52	85.920
537.72	88.090
537.93	85.368
538.13	86.929
538.34	90.313
538.55	91.237
538.75	93.440
538.96	92.828
539.16	90.669
539.37	92.266
539.57	93.505
539.78	96.671
539.98	94.324
540.19	96.271
540.39	93.132
540.60	94.879
540.80	94.346
541.01	93.865
541.21	92.217
541.42	93.449
541.62	90.173
541.83	92.877
542.03	92.425
542.24	94.111
542.44	92.067
542.65	92.882
542.85	91.453
543.06	91.007
543.26	91.733
543.47	92.351
543.67	92.018
543.88	92.424
544.08	92.272
544.29	92.470
544.49	92.260
544.70	93.694
544.90	93.243
545.11	93.563
545.31	94.326
545.52	93.456
545.72	91.963
545.93	89.729
546.13	88.274
546.34	86.881
546.54	87.246
546.75	89.722
546.95	92.613
547.15	95.328
547.36	95.140
547.56	93.646
547.77	93.099
547.97	92.776
548.18	93.157
548.38	93.404
548.59	93.837
548.79	91.905
549.00	91.163
549.20	90.591
549.41	93.721
549.61	92.052
549.81	91.519
550.02	89.706
550.22	89.876
550.43	88.657
550.63	91.306
550.84	90.062
551.04	89.834
551.25	90.227
551.45	92.203
551.65	91.755
551.86	92.083
552.06	92.754
552.27	93.679
552.47	92.186
552.68	93.736
552.88	94.029
553.08	95.101
553.29	93.236
553.49	94.134
553.70	94.722
553.90	96.638
554.11	95.973
554.31	96.335
554.51	98.708
554.72	98.098
554.92	97.259
555.13	98.934
555.33	97.332
555.53	99.068
555.74	99.110
555.94	96.652
556.15	96.957
556.35	95.844
556.56	97.196
556.76	96.413
556.96	97.337
557.17	95.158
557.37	95.428
557.58	95.590
557.78	97.176
557.98	96.323
558.19	95.774
558.39	94.798
558.59	92.603
558.80	91.917
559.00	92.248
559.21	92.893
559.41	92.480
559.61	91.047
559.82	92.070
560.02	91.621
560.23	90.202
560.43	89.966
560.63	90.813
560.84	92.428
561.04	92.165
561.24	93.928
561.45	95.813
561.65	99.197
561.85	98.122
562.06	96.653
562.26	96.655
562.47	97.406
562.67	97.673
562.87	95.600
563.08	94.004
563.28	93.697
563.48	91.753
563.69	90.587
563.89	89.538
564.09	91.833
564.30	90.664
564.50	93.282
564.70	94.709
564.91	94.062
565.11	93.360
565.31	92.932
565.52	90.109
565.72	92.283
565.92	91.252
566.13	90.320
566.33	91.488
566.53	91.278
566.74	91.616
566.94	92.003
567.14	91.207
567.35	92.127
567.55	90.539
567.75	92.807
567.96	93.606
568.16	93.654
568.36	92.584
568.57	91.007
568.77	90.491
568.97	89.197
569.18	89.623
569.38	89.854
569.58	91.281
569.79	91.214
569.99	91.543
570.19	92.428
570.39	94.331
570.60	95.340
570.80	96.069
571.00	97.638
571.21	95.667
571.41	95.503
571.61	96.640
571.82	93.037
572.02	94.324
572.22	94.354
572.42	94.951
572.63	96.285
572.83	97.699
573.03	95.876
573.24	94.942
573.44	92.131
573.64	91.796
573.84	90.230
574.05	88.853
574.25	88.586
574.45	88.092
574.66	88.327
574.86	88.641
575.06	90.420
575.26	91.637
575.47	93.412
575.67	93.077
575.87	93.013
576.07	93.600
576.28	92.433
576.48	89.901
576.68	90.295
576.88	93.100
577.09	92.596
577.29	95.038
577.49	91.762
577.69	92.779
577.90	90.108
578.10	89.852
578.30	87.818
578.50	88.533
578.71	89.716
578.91	92.113
579.11	90.657
579.31	89.957
579.52	89.396
579.72	87.957
579.92	86.096
580.12	86.712
580.33	84.974
580.53	82.056
580.73	80.408
580.93	77.757
581.13	75.821
581.34	71.022
581.54	68.343
581.74	65.590
581.94	62.960
582.15	61.941
582.35	59.927
582.55	56.699
582.75	54.787
582.95	53.023
583.16	49.734
583.36	45.793
583.56	41.880
583.76	38.000
583.96	34.881
584.17	31.843
584.37	28.654
584.57	27.102
584.77	24.026
584.97	22.059
585.18	19.635
585.38	17.512
585.58	15.832
585.78	14.036
585.98	12.279
586.19	11.374
586.39	10.463
586.59	9.259
586.79	8.102
586.99	6.573
587.20	5.622
587.40	5.272
587.60	4.439
587.80	3.883
588.00	3.474
588.20	3.010
588.41	2.653
588.61	2.427
588.81	2.596
589.01	1.991
589.21	1.569
589.41	1.585
589.62	1.288
589.82	1.125
590.02	1.270
590.22	1.083
590.42	1.449
590.62	1.238
590.83	1.160
591.03	1.002
591.23	1.572
591.43	1.037
591.63	1.530
591.83	1.378
592.03	1.161
592.24	1.298
592.44	0.879
592.64	1.195
592.84	0.982
593.04	1.447
593.24	1.300
593.44	1.207
593.65	1.438
593.85	1.439
594.05	0.996
594.25	1.143
594.45	0.914
594.65	0.777
594.85	0.914
595.06	1.084
595.26	0.767
595.46	1.072
595.66	0.722
595.86	0.872
596.06	0.896
596.26	0.980
596.46	0.819
596.66	0.969
596.87	0.700
597.07	0.724
597.27	0.724
597.47	0.931
597.67	0.692
597.87	0.750
598.07	0.650
598.27	0.570
598.47	0.710
598.67	0.754
598.88	1.062
599.08	0.714
599.28	0.871
599.48	0.935
599.68	0.858
599.88	0.897
600.08	0.694
600.28	0.978
600.48	0.978
600.68	0.653
600.88	0.761
601.09	0.583
601.29	0.646
601.49	0.981
601.69	0.892
601.89	0.515
602.09	0.615
602.29	0.592
602.49	0.621
602.69	0.684
602.89	0.620
603.09	0.854
603.29	0.626
603.49	0.411
603.69	0.538
603.90	0.746
604.10	0.562
604.30	0.595
604.50	0.466
604.70	0.546
604.90	0.663
605.10	0.618
605.30	0.904
605.50	0.905
605.70	0.731
605.90	0.741
606.10	0.864
606.30	0.854
606.50	0.826
606.70	0.768
606.90	0.689
607.10	0.737
607.30	0.706
607.50	1.037
607.70	0.816
607.90	0.673
608.10	1.142
608.30	1.098
608.50	1.078
608.70	0.820
608.90	0.698
609.11	0.867
609.31	0.994
609.51	1.083
609.71	1.155
609.91	1.108
610.11	1.239
610.31	1.209
610.51	1.831
610.71	2.331
610.91	2.842
611.11	3.520
611.31	3.613
611.51	3.732
611.71	3.439
611.91	3.306
612.11	3.141
612.31	3.067
612.51	2.706
612.71	2.538
612.91	2.529
613.11	2.401
613.31	2.284
613.51	1.960
613.71	2.152
613.91	1.743
614.11	2.069
614.31	1.776
614.50	1.816
614.70	1.989
614.90	1.700
615.10	1.491
615.30	1.664
615.50	1.781
615.70	1.502
615.90	1.557
616.10	1.571
616.30	1.547
616.50	1.685
616.70	1.680
616.90	1.553
617.10	1.976
617.30	2.055
617.50	2.269
617.70	2.732
617.90	2.601
618.10	3.232
618.30	3.633
618.50	3.810
618.70	4.418
618.90	4.947
619.10	5.742
619.30	6.403
619.49	7.470
619.69	8.605
619.89	8.744
620.09	9.631
620.29	10.408
620.49	11.811
620.69	13.094
620.89	14.176
621.09	16.036
621.29	17.145
621.49	17.792
621.69	19.675
621.89	20.031
622.09	20.584
622.29	22.195
622.48	23.471
622.68	24.284
622.88	26.080
623.08	27.103
623.28	27.706
623.48	28.041
623.68	29.259
623.88	29.898
624.08	31.314
624.28	32.801
624.48	34.385
624.67	34.647
624.87	36.159
625.07	37.107
625.27	37.169
625.47	37.939
625.67	38.551
625.87	39.128
626.07	40.064
626.27	40.752
626.47	41.728
626.66	40.936
626.86	40.849
627.06	40.543
627.26	40.143
627.46	40.992
627.66	42.451
627.86	43.076
628.06	43.735
628.25	44.182
628.45	44.348
628.65	45.248
628.85	46.634
629.05	47.132
629.25	48.908
629.45	50.715
629.65	51.718
629.84	53.502
630.04	55.111
630.24	57.139
630.44	58.289
630.64	58.170
630.84	60.897
631.04	61.333
631.23	63.227
631.43	64.065
631.63	65.968
631.83	69.021
632.03	71.487
632.23	72.789
632.42	74.699
632.62	76.843
632.82	78.356
633.02	80.831
633.22	82.902
633.42	83.563
633.62	85.467
633.81	87.079
634.01	88.440
634.21	88.502
634.41	88.285
634.61	89.176
634.80	89.966
635.00	90.424
635.20	92.434
635.40	93.161
635.60	93.161
635.80	92.103
635.99	91.127
636.19	90.604
636.39	91.635
636.59	90.223
636.79	87.234
636.98	88.013
637.18	88.007
637.38	91.003
637.58	94.789
637.78	95.947
637.97	96.220
638.17	94.258
638.37	93.909
638.57	92.580
638.77	92.039
638.96	90.629
639.16	90.135
639.36	90.911
639.56	90.043
639.76	90.872
639.95	90.642
640.15	91.150
640.35	91.741
640.55	88.000
640.75	89.340
640.94	90.893
641.14	89.640
641.34	90.307
641.54	90.657
641.73	90.020
641.93	90.090
642.13	88.275
642.33	87.732
642.53	86.117
642.72	86.631
642.92	87.438
643.12	89.439
643.32	90.477
643.51	92.056
643.71	89.964
643.91	90.611
644.11	89.350
644.30	88.265
644.50	88.027
644.70	86.467
644.90	86.641
645.09	87.266
645.29	88.240
645.49	88.982
645.69	89.137
645.88	90.030
646.08	90.328
646.28	90.688
646.48	91.744
646.67	92.066
646.87	94.387
647.07	96.083
647.26	94.018
647.46	92.644
647.66	91.893
647.86	93.559
648.05	92.807
648.25	92.164
648.45	94.913
648.65	96.190
648.84	95.551
649.04	96.390
649.24	97.074
649.43	94.613
649.63	95.718
649.83	93.567
650.03	92.979
650.22	92.406
650.42	93.268
650.62	94.243
650.81	92.875
651.01	91.859
651.21	91.188
651.40	90.200
651.60	89.926
651.80	90.650
652.00	91.273
652.19	91.057
652.39	91.547
652.59	91.479
652.78	91.529
652.98	90.306
653.18	90.143
653.37	89.797
653.57	89.716
653.77	91.121
653.96	94.093
654.16	95.525
654.36	95.814
654.55	94.602
654.75	92.373
654.95	91.345
655.14	90.528
655.34	91.685
655.54	92.424
655.73	91.236
655.93	90.769
656.13	91.082
656.32	93.086
656.52	95.767
656.72	95.024
656.91	95.030
657.11	95.595
657.31	94.035
657.50	93.674
657.70	93.723
657.90	95.201
658.09	95.211
658.29	94.922
658.49	93.454
658.68	94.117
658.88	93.655
659.07	94.013
659.27	93.688
659.47	94.373
659.66	96.146
659.86	97.541
660.06	99.222
660.25	98.712
660.45	98.822
660.64	99.194
660.84	97.132
661.04	96.711
661.23	96.099
661.43	95.373
661.63	96.103
661.82	94.009
662.02	94.374
662.21	95.191
662.41	93.996
662.61	93.073
662.80	92.823
663.00	92.512
663.19	90.787
663.39	90.369
663.59	91.458
663.78	91.818
663.98	92.770
664.17	95.067
664.37	96.290
664.57	94.941
664.76	94.781
664.96	91.737
665.15	89.566
665.35	88.308
665.55	86.812
665.74	84.530
665.94	84.649
666.13	86.648
666.33	86.819
666.53	87.222
666.72	89.760
666.92	90.366
667.11	92.194
667.31	91.417
667.50	91.829
667.70	90.949
667.90	92.807
668.09	93.116
668.29	93.538
668.48	94.123
668.68	94.851
668.87	94.817
669.07	94.514
669.26	93.351
669.46	95.390
669.66	95.964
669.85	95.951
670.05	95.956
670.24	95.023
670.44	94.911
670.63	93.779
670.83	91.539
671.02	88.743
671.22	84.885
671.42	84.374
671.61	81.977
671.81	81.957
672.00	80.259
672.20	78.397
672.39	77.103
672.59	76.250
672.78	76.198
672.98	74.715
673.17	73.642
673.37	72.020
673.56	69.552
673.76	68.848
673.95	68.733
674.15	67.465
674.34	65.885
674.54	62.881
674.73	58.158
674.93	55.130
675.13	52.124
675.32	50.855
675.52	49.178
675.71	47.641
675.91	46.333
676.10	43.895
676.30	40.495
676.49	37.450
676.69	34.964
676.88	32.381
677.08	30.143
677.27	27.325
677.47	25.804
677.66	23.925
677.86	22.499
678.05	20.258
678.24	18.403
678.44	16.936
678.63	15.482
678.83	14.070
679.02	12.747
679.22	11.477
679.41	11.037
679.61	9.840
679.80	9.092
680.00	8.275
680.19	7.431
680.39	6.474
680.58	5.564
680.78	5.308
680.97	4.443
681.17	3.909
681.36	3.444
681.56	3.073
681.75	2.813
681.94	2.372
682.14	2.309
682.33	2.013
682.53	1.882
682.72	1.702
682.92	1.544
683.11	1.378
683.31	0.781
683.50	1.046
683.69	1.161
683.89	1.036
684.08	0.687
684.28	0.796
684.47	0.826
684.67	0.817
684.86	0.772
685.06	0.807
685.25	0.617
685.44	0.698
685.64	0.485
685.83	0.781
686.03	0.467
686.22	0.711
686.42	0.241
686.61	0.319
686.80	0.513
687.00	0.556
687.19	0.507
687.39	0.448
687.58	0.502
687.77	0.634
687.97	0.412
688.16	0.463
688.36	0.438
688.55	0.362
688.74	0.511
688.94	0.293
689.13	0.373
689.33	0.274
689.52	0.377
689.71	0.342
689.91	0.272
690.10	0.407
690.30	0.227
690.49	0.272
690.68	0.162
690.88	0.190
691.07	0.320
691.27	0.349
691.46	0.047
691.65	0.418
691.85	0.004
692.04	0.230
692.23	0.432
692.43	0.242
692.62	0.256
692.82	0.236
693.01	0.367
693.20	0.311
693.40	0.311
693.59	0.181
693.78	0.241
693.98	0.207
694.17	0.202
694.36	0.136
694.56	0.138
694.75	0.117
694.94	0.184
695.14	0.119
695.33	0.343
695.53	0.151
695.72	0.114
695.91	0.355
696.11	0.358
696.30	-0.038
696.49	0.149
696.69	0.204
696.88	0.328
697.07	0.106
697.27	-0.033
697.46	-0.082
697.65	0.129
697.85	0.136
698.04	0.171
698.23	0.049
698.43	0.117
698.62	0.195
698.81	0.069
699.01	0.053
699.20	0.194
699.39	0.158
699.58	0.339
699.78	0.263
699.97	-0.062
700.16	0.083
700.36	0.064
700.55	0.135
700.74	0.207
700.94	0.120
701.13	0.251
701.32	0.202
701.52	-0.029
701.71	-0.012
701.90	-0.106
702.09	0.074
702.29	0.058
702.48	0.103
702.67	0.000
702.87	0.071
703.06	-0.095
703.25	0.239
703.44	0.101
703.64	-0.156
703.83	0.115
704.02	0.154
704.22	-0.103
704.41	0.061
704.60	0.053
704.79	-0.018
704.99	0.107
705.18	0.196
705.37	0.104
705.56	0.141
705.76	0.152
705.95	0.033
706.14	0.021
706.33	-0.146
706.53	0.159
706.72	0.054
706.91	-0.004
707.11	0.319
707.30	0.141
707.49	0.262
707.68	0.052
707.88	0.183
708.07	0.083
708.26	0.072
708.45	0.183
708.64	0.159
708.84	0.192
709.03	0.138
709.22	0.324
709.41	0.062
709.61	-0.034
709.80	-0.013
709.99	-0.128
710.18	0.060
710.38	-0.052
710.57	0.087
710.76	-0.035
710.95	0.160
711.14	-0.050
711.34	0.118
711.53	0.129
711.72	0.117
711.91	0.017
712.11	0.230
712.30	0.157
712.49	0.055
712.68	0.237
712.87	-0.048
713.07	0.210
713.26	0.163
713.45	-0.061
713.64	0.075
713.83	0.104
714.03	0.125
714.22	-0.090
714.41	0.061
714.60	-0.168
714.79	0.009
714.99	0.021
715.18	0.057
715.37	0.180
715.56	0.191
715.75	0.009
715.94	0.125
716.14	0.031
716.33	0.099
716.52	-0.186
716.71	-0.064
716.90	-0.009
717.10	0.262
717.29	0.161
717.48	-0.031
717.67	-0.027
717.86	0.071
718.05	-0.181
718.24	-0.119
718.44	0.075
718.63	-0.004
718.82	0.146
719.01	-0.058
719.20	0.089
719.39	-0.362
719.59	-0.180
719.78	-0.027
719.97	0.097
720.16	-0.136
720.35	0.009
720.54	-0.093
720.73	-0.168
720.93	0.178
721.12	0.070
721.31	0.307
721.50	0.201
721.69	-0.071
721.88	0.144
722.07	-0.053
722.27	-0.019
722.46	-0.204
722.65	0.057
722.84	0.062
723.03	0.134
723.22	-0.104
723.41	0.209
723.60	0.100
723.79	0.082
723.99	0.305
724.18	0.130
724.37	0.099
724.56	-0.005
724.75	0.028
724.94	0.122
725.13	0.240
725.32	-0.057
725.51	0.095
725.71	-0.014
725.90	0.076
726.09	0.085
726.28	0.024
726.47	0.119
726.66	0.202
726.85	-0.034
727.04	0.303
727.23	0.110
727.42	0.070
727.61	0.073
727.81	0.151
728.00	0.063
728.19	0.058
728.38	-0.123
728.57	0.229
728.76	0.024
728.95	0.151
729.14	-0.054
729.33	0.110
729.52	0.231
729.71	0.145
729.90	0.035
730.09	-0.167
730.28	0.105
730.48	0.198
730.67	0.086
730.86	-0.020
731.05	0.031
731.24	0.026
731.43	0.059
731.62	-0.167
731.81	0.033
732.00	0.103
732.19	-0.144
732.38	-0.086
732.57	-0.159
732.76	-0.016
732.95	-0.042
733.14	0.005
733.33	0.150
733.52	0.395
733.71	0.204
733.90	-0.178
734.09	0.005
734.28	-0.123
734.47	0.177
734.66	-0.016
734.85	-0.021
735.04	-0.064
735.23	0.060
735.42	0.128
735.61	0.096
735.81	0.073
736.00	0.068
736.19	-0.092
736.38	-0.051
736.57	-0.028
736.76	-0.011
736.95	-0.121
737.14	0.123
737.33	0.386
737.52	-0.046
737.71	-0.088
737.90	0.010
738.09	-0.180
738.28	0.109
738.47	-0.226
738.66	-0.091
738.85	0.093
739.04	-0.070
739.22	-0.282
739.41	0.059
739.60	-0.104
739.79	0.046
739.98	-0.109
740.17	-0.028
740.36	0.135
740.55	0.039
740.74	-0.005
740.93	0.110
741.12	0.017
741.31	-0.057
741.50	0.126
741.69	-0.017
741.88	0.081
742.07	-0.040
742.26	0.126
742.45	0.104
742.64	0.548
742.83	0.180
743.02	-0.118
743.21	-0.077
743.40	0.120
743.59	0.125
743.78	0.000
743.97	-0.309
744.16	0.033
744.34	0.161
744.53	0.188
744.72	0.313
744.91	0.171
745.10	0.117
745.29	0.206
745.48	-0.103
745.67	-0.063
745.86	0.231
746.05	0.159
746.24	0.278
746.43	-0.038
746.62	0.387
746.81	-0.058
747.00	0.169
747.18	-0.006
747.37	0.006
747.56	0.249
747.75	0.284
747.94	-0.040
748.13	0.206
748.32	0.000
748.51	0.145
748.70	0.007
748.89	0.035
749.08	-0.041
749.26	-0.164
749.45	-0.103
749.64	0.389
749.83	-0.192
750.02	-0.072
750.21	-0.094
750.40	-0.051
750.59	-0.089
750.78	0.282
750.96	-0.023
751.15	0.097
751.34	0.187
751.53	-0.234
751.72	0.340
751.91	0.000
752.10	0.089
752.29	0.193
752.47	0.090
752.66	-0.023
752.85	0.154
753.04	0.024
753.23	0.112
753.42	-0.223
753.61	0.080
753.80	0.449
753.98	0.231
754.17	-0.056
754.36	0.252
754.55	-0.107
754.74	0.456
754.93	-0.183
755.12	0.114
755.30	0.429
755.49	0.237
755.68	0.099
755.87	-0.391
756.06	0.564
756.25	-0.106
756.43	0.361
756.62	-0.104
756.81	0.587
757.00	0.381
757.19	-0.018
757.38	0.314
757.56	0.186
757.75	0.263
757.94	0.321
758.13	-0.048
758.32	0.506
758.51	0.484
758.69	0.188
758.88	0.070
759.07	-0.010
759.26	-0.243
759.45	-0.383
759.63	0.599
759.82	0.116
760.01	0.107
760.20	0.262
760.39	0.449
760.57	0.100
760.76	0.345
760.95	0.508
761.14	0.360
761.33	-0.114
761.51	0.533
761.70	-0.128
761.89	0.217
762.08	0.486
762.27	0.794
762.45	0.140
762.64	0.119
762.83	0.456
763.02	-0.248
763.21	0.151
763.39	0.369
763.58	-0.549
763.77	0.371
763.96	0.335
764.14	0.242
764.33	-0.273
764.52	0.252
764.71	0.227
764.89	0.013
765.08	0.716
765.27	-0.601
765.46	0.027
765.65	0.331
765.83	0.595
766.02	-0.351
766.21	-0.255
766.40	0.336
766.58	0.315
766.77	0.085
766.96	0.232
767.15	0.402
767.33	0.183
767.52	0.479
767.71	0.187
767.90	-0.078
768.08	0.585
768.27	-0.481
768.46	-0.129
768.64	-0.390
768.83	0.165
769.02	0.322
769.21	-0.219
769.39	0.170
769.58	-0.667
769.77	0.240
769.96	0.171
770.14	0.887
770.33	0.489
770.52	0.558
770.70	0.563
770.89	-0.051
771.08	-0.375
771.27	0.757
771.45	0.017
771.64	0.364
771.83	-0.238
772.01	0.017
772.20	0.814
772.39	0.998
772.57	-0.308
772.76	0.183
772.95	0.547
773.14	0.315
773.32	-0.277
773.51	0.038
773.70	0.283
773.88	-0.155
774.07	-0.175
774.26	0.057
774.44	0.115
774.63	-0.077
774.82	-0.293
775.00	-0.339
775.19	0.837
775.38	0.621
775.56	-0.534
775.75	0.729
775.94	-0.355
776.12	0.157
776.31	0.221
776.50	0.639
776.68	1.074
776.87	0.825
777.06	-0.752
777.24	-0.041
777.43	0.904
777.62	-0.021
777.80	-0.532
777.99	-0.021
778.18	0.334
778.36	-0.125
778.55	-0.104
778.74	0.599
778.92	-0.851
779.11	0.746
779.29	0.143
779.48	0.982
779.67	0.369
779.85	0.403
780.04	0.388
780.23	1.252
780.41	-0.203
780.60	-0.143
780.79	0.578
780.97	0.361
781.16	0.059
781.34	-0.437
781.53	-0.040
781.72	0.528
781.90	0.175
782.09	1.048
782.28	1.224
782.46	0.294
782.65	0.059
782.83	-0.585
783.02	-0.321
783.21	-0.514
783.39	0.496
783.58	0.309
783.76	0.879
783.95	-0.345
784.14	0.168
784.32	0.903
784.51	-0.672
784.69	0.449
784.88	-0.018
785.06	-0.289
785.25	0.410
785.44	0.018
785.62	0.299
785.81	1.012
785.99	-0.613
786.18	-0.407
786.37	-0.130
786.55	0.650
786.74	-0.171
786.92	0.653
787.11	0.198
787.29	0.236
787.48	-0.378
787.67	0.335
787.85	0.136
788.04	0.522
788.22	0.385
788.41	0.822
788.59	0.113
788.78	0.319
788.96	-0.154
789.15	0.251
789.34	-0.115
789.52	-0.501
789.71	0.000
789.89	0.663
790.08	0.275
790.26	0.379
790.45	-0.035
790.63	-0.250
790.82	-0.298
791.00	0.140
791.19	0.354
791.38	0.524
791.56	0.143
791.75	-0.511
791.93	1.084
792.12	0.537
792.30	-0.349
792.49	-0.412
792.67	0.034
792.86	0.586
793.04	0.423
793.23	-0.812
793.41	-0.277
793.60	0.087
793.78	0.690
793.97	-0.382
794.15	0.417
794.34	0.635
794.52	0.589
794.71	0.409
794.89	0.467
795.08	-0.487
795.26	-0.520
795.45	0.000
795.63	0.326
795.82	-0.164
796.00	0.163
796.19	0.310
796.37	0.045
796.56	-0.371
796.74	1.204
796.93	0.744
797.11	-0.174
797.30	-0.101
797.48	-0.101
797.67	0.777
797.85	0.367
798.04	0.306
798.22	-0.480
798.41	0.092
798.59	0.184
798.77	0.382
798.96	-0.323
799.14	-0.046
799.33	-0.015
799.51	0.332
799.70	-0.164
799.88	-0.621
800.07	-0.045
800.25	0.251
800.44	0.117
800.62	-0.015
800.80	0.293
800.99	-0.325
801.17	0.340
801.36	0.682
801.54	0.177
801.73	-0.367
801.91	0.058
802.10	-0.290
802.28	1.019
802.46	1.107
802.65	0.043
802.83	0.621
803.02	0.929
803.20	0.484
803.39	0.101
803.57	0.343
803.75	0.090
803.94	-0.624
804.12	0.514
804.31	-0.156
804.49	-0.064
804.67	0.410
804.86	0.818
805.04	0.221
805.23	1.071
805.41	1.007
805.59	0.519
805.78	0.064
805.96	0.699
806.15	0.569
806.33	0.694
806.51	-0.077
806.70	-0.228
806.88	0.198
807.07	0.463
807.25	0.205
807.43	0.095
807.62	0.622
807.80	0.430
807.99	0.407
808.17	0.294
808.35	0.142
808.54	0.700
808.72	0.454
808.90	0.467
809.09	0.150
809.27	0.030
809.46	0.450
809.64	-0.045
809.82	0.247
810.01	0.108
810.19	0.215
810.37	0.568
810.56	-0.253
810.74	0.614
810.92	0.450
811.11	0.524
811.29	1.188
811.48	0.264
811.66	0.709
811.84	0.983
812.03	1.000
812.21	1.295
812.39	0.469
812.58	1.414
812.76	0.643
812.94	0.900
813.13	1.203
813.31	1.620
813.49	1.073
813.68	1.403
813.86	1.981
814.04	1.326
814.23	1.493
814.41	1.006
814.59	1.319
814.78	1.566
814.96	1.968
815.14	1.969
815.33	1.593
815.51	1.618
815.69	2.272
815.87	1.535
816.06	1.520
816.24	1.668
816.42	2.459
816.61	2.341
816.79	2.087
816.97	2.230
817.16	1.682
817.34	2.699
817.52	2.414
817.70	1.782
817.89	2.082
818.07	2.568
818.25	2.606
818.44	2.028
818.62	2.787
818.80	1.949
818.98	2.916
819.17	1.812
819.35	2.454
819.53	2.819
819.72	2.074
819.90	3.172
820.08	2.571
820.26	3.165
820.45	2.525
820.63	2.108
820.81	3.457
820.99	3.128
821.18	2.579
821.36	3.502
821.54	2.810
821.73	3.273
821.91	3.838
822.09	3.447
822.27	3.073
822.46	4.067
822.64	4.961
822.82	5.978
823.00	5.068
823.19	6.298
823.37	5.467
823.55	6.115
823.73	6.976
823.91	6.564
824.10	7.286
824.28	8.697
824.46	9.437
824.64	10.455
824.83	9.801
825.01	12.061
825.19	12.117
825.37	13.009
825.56	12.756
825.74	12.020
825.92	14.182
826.10	13.150
826.28	14.700
826.47	15.861
826.65	15.143
826.83	15.239
827.01	16.787
827.19	16.417
827.38	15.766
827.56	17.562
827.74	19.074
827.92	19.455
828.10	20.067
828.29	18.379
828.47	21.264
828.65	20.614
828.83	21.837
829.01	23.014
829.20	23.051
829.38	24.243
829.56	26.636
829.74	25.940
829.92	27.126
830.10	26.787
830.29	26.989
830.47	28.323
830.65	27.547
830.83	27.563
831.01	25.330
831.20	27.224
831.38	26.073
831.56	27.252
831.74	28.012
831.92	27.413
832.10	28.680
832.29	28.378
832.47	27.911
832.65	28.881
832.83	28.082
833.01	30.378
833.19	27.285
833.37	27.457
833.56	29.067
833.74	27.336
833.92	29.814
834.10	28.551
834.28	27.908
834.46	26.524
834.64	26.346
834.83	27.520
835.01	25.555
835.19	24.344
835.37	23.670
835.55	22.629
835.73	24.816
835.91	23.305
836.09	23.789
836.28	23.710
836.46	22.610
836.64	21.098
836.82	21.824
837.00	20.045
837.18	18.454
837.36	19.462
837.54	17.861
837.72	18.244
837.91	17.715
838.09	16.356
838.27	16.499
838.45	15.906
838.63	17.559
838.81	15.987
838.99	15.081
839.17	16.444
839.35	15.878
839.53	16.283
839.72	14.877
839.90	13.755
840.08	13.244
840.26	13.342
840.44	12.215
840.62	12.882
840.80	12.811
840.98	11.885
841.16	13.396
841.34	13.163
841.52	12.120
841.70	12.902
841.89	14.164
842.07	13.032
842.25	13.123
842.43	13.572
842.61	14.248
842.79	15.414
842.97	14.689
843.15	13.969
843.33	14.830
843.51	15.800
843.69	16.846
843.87	16.959
844.05	16.223
844.23	18.318
844.41	18.455
844.59	19.738
844.77	19.344
844.95	16.585
845.13	19.693
845.31	18.906
845.50	17.896
845.68	18.731
845.86	17.275
846.04	17.278
846.22	17.960
846.40	18.128
846.58	18.672
846.76	18.022
846.94	17.656
847.12	19.838
847.30	17.331
847.48	19.118
847.66	21.045
847.84	19.008
848.02	18.968
848.20	22.952
848.38	22.929
848.56	25.825
848.74	22.686
848.92	25.497
849.10	25.981
849.28	26.936
849.46	27.518
849.64	28.676
849.82	30.088
850.00	27.655
850.18	28.045
850.36	28.589
850.54	28.543
850.72	28.119
850.90	28.903
851.08	27.985
851.26	29.771
851.44	27.578
851.62	29.153
851.80	29.457
851.98	29.912
852.16	29.944
852.34	29.330
852.52	30.813
852.70	30.916
852.87	29.400
853.05	29.501
853.23	27.040
853.41	29.283
853.59	27.262
853.77	29.444
853.95	27.440
854.13	25.882
854.31	28.623
854.49	27.200
854.67	24.209
854.85	26.282
855.03	25.028
855.21	26.212
855.39	26.060
855.57	24.045
855.75	26.117
855.93	25.703
856.11	24.347
856.28	26.558
856.46	27.472
856.64	26.393
856.82	28.577
857.00	27.461
857.18	29.105
857.36	28.901
857.54	29.976
857.72	29.342
857.90	30.905
858.08	31.177
858.26	31.669
858.44	33.793
858.61	30.111
858.79	32.587
858.97	30.350
859.15	32.887
859.33	30.790
859.51	32.469
859.69	32.758
859.87	30.459
860.05	29.545
860.23	30.454
860.40	29.867
860.58	28.838
860.76	29.468
860.94	27.736
861.12	26.278
861.30	27.269
861.48	24.446
861.66	23.952
861.84	23.841
862.01	24.699
862.19	24.487
862.37	23.020
862.55	21.953
862.73	21.590
862.91	22.277
863.09	22.168
863.27	20.630
863.44	22.214
863.62	19.956
863.80	20.565
863.98	19.718
864.16	19.885
864.34	18.752
864.52	17.787
864.69	18.139
864.87	18.939
865.05	18.755
865.23	19.604
865.41	18.922
865.59	20.538
865.76	19.831
865.94	20.393
866.12	20.426
866.30	18.363
866.48	20.404
866.66	20.838
866.83	20.319
867.01	19.925
867.19	20.081
867.37	20.625
867.55	20.014
867.73	21.034
867.90	22.944
868.08	23.364
868.26	25.734
868.44	25.956
868.62	26.706
868.79	26.884
868.97	29.343
869.15	31.189
869.33	30.856
869.51	29.830
869.69	33.283
869.86	31.462
870.04	35.329
870.22	35.454
870.40	37.306
870.57	39.517
870.75	38.464
870.93	38.487
871.11	35.593
871.29	37.243
871.46	38.060
871.64	41.200
871.82	40.143
872.00	41.292
872.18	44.868
872.35	41.934
872.53	44.609
872.71	45.268
872.89	44.954
873.06	43.890
873.24	43.150
873.42	45.814
873.60	45.464
873.77	45.301
873.95	48.132
874.13	46.124
874.31	46.854
874.49	44.534
874.66	44.121
874.84	44.467
875.02	43.161
875.20	44.179
875.37	42.758
875.55	42.843
875.73	41.853
875.91	45.034
876.08	44.213
876.26	46.086
876.44	47.593
876.61	43.667
876.79	45.234
876.97	44.788
877.15	47.275
877.32	45.194
877.50	42.743
877.68	41.593
877.86	41.424
878.03	40.483
878.21	41.419
878.39	41.322
878.56	42.051
878.74	41.395
878.92	43.746
879.10	44.204
879.27	41.575
879.45	39.888
879.63	41.042
879.80	41.089
879.98	43.592
880.16	45.620
880.34	43.803
880.51	45.479
880.69	45.945
880.87	45.208
881.04	44.295
881.22	44.155
881.40	43.318
881.57	46.154
881.75	48.212
881.93	50.444
882.10	49.963
882.28	50.925
882.46	49.538
882.63	51.860
882.81	51.975
882.99	55.077
883.16	53.523
883.34	54.116
883.52	53.560
883.69	51.461
883.87	56.208
884.05	56.375
884.22	57.138
884.40	57.425
884.58	56.503
884.75	59.839
884.93	61.900
885.11	59.534
885.28	61.010
885.46	60.742
885.64	60.656
885.81	60.090
885.99	61.908
886.17	60.278
886.34	65.687
886.52	61.363
886.70	63.996
886.87	60.704
887.05	60.521
887.22	60.654
887.40	56.536
887.58	55.192
887.75	57.470
887.93	56.874
888.11	54.690
888.28	56.051
888.46	54.543
888.63	51.497
888.81	53.743
888.99	54.063
889.16	52.239
889.34	53.077
889.51	52.989
889.69	53.228
889.87	52.549
890.04	51.178
890.22	51.875
890.39	54.106
890.57	52.969
890.75	54.588
890.92	55.240
891.10	53.216
891.27	53.992
891.45	51.997
891.63	54.223
891.80	54.861
891.98	53.718
892.15	53.925
892.33	56.250
892.51	56.272
892.68	55.537
892.86	58.261
893.03	58.400
893.21	59.015
893.38	61.223
893.56	60.423
893.74	66.655
893.91	66.587
894.09	64.623
894.26	66.119
894.44	70.481
894.61	70.023
894.79	68.148
894.96	70.977
895.14	71.961
895.32	71.223
895.49	72.431
895.67	71.950
895.84	75.324
896.02	72.994
896.19	72.926
896.37	71.153
896.54	71.433
896.72	74.427
896.89	69.545
897.07	68.821
897.25	70.606
897.42	70.556
897.60	70.123
897.77	73.098
897.95	71.000
898.12	74.593
898.30	73.322
898.47	76.737
898.65	72.898
898.82	71.044
899.00	70.860
899.17	67.896
899.35	71.029
899.52	67.789
899.70	66.587
899.87	67.625
900.05	67.485
900.22	64.568
900.40	62.263
900.57	67.578
900.75	63.173
900.92	65.658
901.10	64.064
901.27	61.362
901.45	60.566
901.62	60.112
901.80	58.488
901.97	60.575
902.15	56.476
902.32	57.760
902.50	61.921
902.67	58.066
902.85	61.308
903.02	61.820
903.20	59.315
903.37	61.669
903.54	61.343
903.72	61.142
903.89	59.286
904.07	66.759
904.24	65.221
904.42	64.847
904.59	61.940
904.77	66.073
904.94	62.784
905.12	66.162
905.29	62.402
905.47	62.394
905.64	60.495
905.81	61.174
905.99	66.654
906.16	67.640
906.34	66.214
906.51	67.072
906.69	69.638
906.86	66.988
907.03	69.060
907.21	67.234
907.38	70.408
907.56	63.919
907.73	64.836
907.91	69.344
908.08	68.862
908.25	66.369
908.43	66.978
908.60	66.179
908.78	65.765
908.95	64.415
909.13	65.768
909.30	66.358
909.47	66.835
909.65	66.314
909.82	60.852
910.00	64.942
910.17	61.208
910.34	58.959
910.52	63.249
910.69	58.008
910.87	57.119
911.04	60.197
911.21	54.282
911.39	55.624
911.56	52.814
911.73	51.570
911.91	53.606
912.08	53.012
912.26	53.830
912.43	51.070
912.60	53.559
912.78	52.547
912.95	52.788
913.13	49.392
913.30	49.071
913.47	52.535
913.65	48.787
913.82	48.320
913.99	45.377
914.17	45.042
914.34	41.667
914.51	43.310
914.69	43.771
914.86	39.374
915.03	43.133
915.21	41.927
915.38	39.840
915.56	42.887
915.73	44.680
915.90	43.307
916.08	44.166
916.25	45.339
916.42	44.387
916.60	45.024
916.77	45.351
916.94	44.318
917.12	43.422
917.29	43.247
917.46	44.959
917.64	46.089
917.81	46.055
917.98	47.050
918.16	46.767
918.33	48.296
918.50	48.613
918.67	49.406
918.85	49.945
919.02	50.736
919.19	47.942
919.37	54.019
919.54	48.502
919.71	47.859
919.89	52.287
920.06	50.570
920.23	46.817
920.41	43.842
920.58	51.049
920.75	50.774
920.92	48.311
921.10	48.851
921.27	48.190
921.44	51.903
921.62	51.738
921.79	52.555
921.96	50.146
922.13	50.880
922.31	51.944
922.48	46.259
922.65	46.836
922.82	46.663
923.00	42.840
923.17	46.792
923.34	45.606
923.52	45.255
923.69	43.873
923.86	41.651
924.03	44.276
924.21	47.754
924.38	45.954
924.55	45.801
924.72	42.867
924.90	44.506
925.07	46.798
925.24	46.040
925.41	45.277
925.59	42.857
925.76	44.130
925.93	48.897
926.10	42.597
926.28	45.057
926.45	45.488
926.62	41.168
926.79	41.703
926.96	41.924
927.14	39.901
927.31	42.867
927.48	42.297
927.65	39.943
927.83	43.156
928.00	41.142
928.17	45.799
928.34	41.339
928.51	42.784
928.69	43.148
928.86	42.426
929.03	43.655
929.20	45.367
929.37	39.361
929.55	41.654
929.72	44.807
929.89	40.895
930.06	44.913
930.23	41.483
930.41	41.849
930.58	46.416
930.75	43.927
930.92	43.781
931.09	47.347
931.27	44.862
931.44	44.310
931.61	41.900
931.78	47.423
931.95	46.320
932.12	47.118
932.30	46.719
932.47	44.648
932.64	49.819
932.81	45.797
932.98	52.547
933.16	52.572
933.33	57.270
933.50	54.197
933.67	52.890
933.84	54.250
934.01	56.464
934.18	53.079
934.36	60.646
934.53	57.314
934.70	61.696
934.87	59.621
935.04	61.306
935.21	60.454
935.38	62.558
935.56	61.402
935.73	62.289
935.90	62.826
936.07	62.449
936.24	65.924
936.41	63.943
936.58	62.297
936.76	66.837
936.93	67.746
937.10	69.822
937.27	67.770
937.44	64.897
937.61	71.928
937.78	70.457
937.95	76.023
938.13	74.147
938.30	72.857
938.47	69.018
938.64	74.494
938.81	75.855
938.98	74.868
939.15	75.778
939.32	71.842
939.49	69.140
939.66	69.197
939.84	74.314
940.01	73.246
940.18	67.120
940.35	67.922
940.52	66.819
940.69	69.781
940.86	70.996
941.03	62.574
941.20	61.674
941.37	65.325
941.54	66.746
941.71	62.529
941.89	63.298
942.06	57.126
942.23	59.580
942.40	61.379
942.57	57.054
942.74	58.908
942.91	56.163
943.08	62.310
943.25	54.477
943.42	59.972
943.59	63.303
943.76	57.355
943.93	62.756
944.10	56.085
944.27	58.311
944.44	59.948
944.61	56.396
944.79	55.070
944.96	62.407
945.13	58.018
945.30	62.195
945.47	57.945
945.64	62.187
945.81	58.449
945.98	58.069
946.15	65.282
946.32	64.673
946.49	72.250
946.66	66.974
946.83	61.126
947.00	66.029
947.17	64.697
947.34	64.629
947.51	67.688
947.68	65.931
947.85	62.462
948.02	73.214
948.19	64.229
948.36	73.604
948.53	67.474
948.70	73.297
948.87	77.833
949.04	63.205
949.21	67.987
949.38	71.088
949.55	67.250
949.72	68.863
949.89	60.469
950.06	63.316
950.23	66.835
950.40	53.566
950.57	65.946
950.74	72.968
950.91	66.912
951.08	62.718
951.25	73.954
951.42	78.072
951.59	65.823
951.76	70.505
951.93	64.388
952.10	64.493
952.27	59.430
952.44	72.041
952.61	62.581
952.77	61.290
952.94	66.057
953.11	61.143
953.28	65.660
953.45	63.821
953.62	61.525
953.79	67.407
953.96	48.047
954.13	62.835
954.30	62.298
954.47	55.221
954.64	63.269
954.81	65.996
954.98	55.801
955.15	55.000
955.32	47.452
955.49	51.272
955.65	45.600
955.82	54.990
955.99	50.089
956.16	49.704
956.33	52.087
956.50	56.420
956.67	48.692
956.84	42.509
957.01	56.823
957.18	39.563
957.35	37.903
957.52	42.771
957.68	49.107
957.85	44.894
958.02	44.612
958.19	41.463
958.36	45.024
958.53	51.823
958.70	40.043
958.87	46.085
959.04	33.333
959.21	44.934
959.37	58.701
959.54	48.276
959.71	54.502
959.88	48.373
960.05	52.019
960.22	44.903
960.39	43.720
960.56	41.228
960.72	38.877
960.89	37.580
961.06	47.083
961.23	39.909
961.40	40.217
961.57	42.593
961.74	36.759
961.90	42.222
962.07	43.038
962.24	42.395
962.41	39.073
962.58	43.590
962.75	46.025
962.92	54.248
963.08	36.180
963.25	38.395
963.42	44.844
963.59	48.093
963.76	46.727
963.93	41.055
964.10	56.047
964.26	35.983
964.43	42.032
964.60	35.059
964.77	47.685
964.94	41.981
965.10	48.554
965.27	29.748
965.44	35.535
965.61	39.946
965.78	33.409
965.95	40.095
966.11	45.853
966.28	50.139
966.45	33.149
966.62	42.548
966.79	40.741
966.95	44.796
967.12	41.441
967.29	38.549
967.46	45.249
967.63	34.468
967.79	33.406
967.96	43.584
968.13	39.766
968.30	33.071
968.47	40.000
968.63	40.085
968.80	33.267
968.97	39.863
969.14	37.228
969.31	32.692
969.47	42.366
969.64	25.852
969.81	36.364
969.98	24.265
970.14	30.586
970.31	33.261
970.48	33.259
970.65	42.353
970.81	34.896
970.98	30.621
971.15	25.367
971.32	28.667
971.48	35.385
971.65	29.650
971.82	24.379
971.99	28.836
972.15	32.779
972.32	28.873
972.49	29.424
972.66	28.125
972.82	31.603
972.99	19.529
973.16	21.581
973.33	29.147
973.49	23.929
973.66	36.772
973.83	31.888
974.00	28.378
974.16	27.045
974.33	18.715
974.50	35.507
974.67	27.654
974.83	31.961
975.00	24.163
975.17	40.230
975.33	34.813
975.50	33.065
975.67	35.945
975.84	29.915
976.00	28.941
976.17	37.882
976.34	39.196
976.50	32.873
976.67	33.716
976.84	26.786
977.00	30.260
977.17	24.225
977.34	24.880
977.50	36.729
977.67	29.680
977.84	41.261
978.01	26.702
978.17	35.013
978.34	31.762
978.51	39.225
978.67	47.706
978.84	29.885
979.01	24.764
979.17	43.789
979.34	40.674
979.51	33.000
979.67	42.961
979.84	42.280
980.01	39.636
980.17	39.943
980.34	31.250
980.51	51.963
980.67	41.299
980.84	47.010
981.01	35.101
981.17	38.431
981.34	32.211
981.50	36.058
981.67	37.965
981.84	42.543
982.00	31.959
982.17	39.695
982.34	37.617
982.50	43.293
982.67	43.411
982.84	41.589
983.00	44.648
983.17	31.881
983.33	45.556
983.50	39.013
983.67	38.546
983.83	49.666
984.00	39.663
984.17	37.124
984.33	43.500
984.50	35.095
984.66	46.134
984.83	44.231
985.00	41.556
985.16	53.165
985.33	45.455
985.49	39.703
985.66	41.458
985.83	52.459
985.99	47.619
986.16	36.008
986.32	46.185
986.49	54.299
986.66	41.458
986.82	52.838
986.99	41.259
987.15	52.336
987.32	53.774
987.49	50.226
987.65	54.779
987.82	39.691
987.98	45.070
988.15	49.618
988.31	43.499
988.48	47.867
988.65	45.767
988.81	45.861
988.98	39.842
989.14	57.109
989.31	52.174
989.47	44.471
989.64	40.541
989.80	42.019
989.97	47.835
990.14	50.638
990.30	41.587
990.47	38.592
990.63	38.051
990.80	50.928
990.96	43.548
991.13	47.321
991.29	43.705
991.46	51.069
991.62	45.814
991.79	54.906
991.95	56.659
992.12	43.537
992.29	45.325
992.45	65.596
992.62	48.879
992.78	47.379
992.95	60.048
993.11	50.336
993.28	62.347
993.44	57.112
993.61	51.660
993.77	67.016
993.94	44.622
994.10	55.696
994.27	47.188
994.43	54.852
994.60	55.250
994.76	52.887
994.93	59.226
995.09	51.482
995.26	62.379
995.42	53.771
995.59	60.686
995.75	62.731
995.92	52.941
996.08	53.882
996.25	51.111
996.41	54.167
996.58	60.046
996.74	54.352
996.91	60.574
997.07	59.756
997.23	62.745
997.40	64.018
997.56	65.421
997.73	57.500
997.89	50.559
998.06	55.947
998.22	62.408
998.39	61.345
998.55	68.822
998.72	46.028
998.88	66.250
999.05	68.150
999.21	54.654
999.37	68.617
999.54	54.293
999.70	61.269
999.87	61.809
1000.03	65.982
1000.20	67.067
1000.36	75.300
1000.52	57.113
1000.69	68.687
1000.85	67.819
1001.02	61.644
1001.18	60.994
1001.35	59.236
1001.51	55.902
1001.67	68.597
1001.84	63.291
1002.00	65.336
1002.17	64.450
1002.33	71.897
1002.50	64.786
1002.66	72.038
1002.82	60.302
1002.99	68.000
1003.15	80.201
1003.32	75.439
1003.48	49.282
1003.64	64.885
1003.81	70.787
1003.97	56.393
1004.14	73.934
1004.30	74.447
1004.46	78.851
1004.63	59.091
1004.79	74.474
1004.95	63.753
1005.12	73.077
1005.28	64.921
1005.45	65.668
1005.61	65.526
1005.77	66.995
1005.94	65.695
1006.10	70.529
1006.26	58.273
1006.43	57.583
1006.59	72.191
1006.76	49.868
1006.92	70.588
1007.08	76.794
1007.25	63.576
1007.41	60.911
1007.57	51.225
1007.74	58.438
1007.90	75.000
1008.06	61.979
1008.23	76.410
1008.39	62.552
1008.55	64.977
1008.72	67.332
1008.88	73.778
1009.04	71.274
1009.21	66.110
1009.37	60.263
1009.53	69.544
1009.70	80.376
1009.86	80.159
1010.02	70.159
1010.19	78.571
1010.35	75.221
1010.51	78.282
1010.68	75.000
1010.84	76.903
1011.00	68.974
1011.17	81.717
1011.33	68.704
1011.49	68.362
1011.66	61.795
1011.82	73.913
1011.98	83.384
1012.14	75.616
1012.31	78.171
1012.47	61.637
1012.63	74.138
1012.80	69.048
1012.96	68.182
1013.12	82.778
1013.29	76.731
1013.45	75.718
1013.61	68.992
1013.77	84.496
1013.94	71.018
1014.10	76.970
1014.26	68.069
1014.43	81.868
1014.59	74.185
1014.75	69.430
1014.91	73.455
1015.08	74.334
1015.24	84.302
1015.40	73.000
1015.56	72.105
1015.73	75.802
1015.89	80.914
1016.05	73.223
1016.21	81.748
1016.38	81.769
1016.54	92.105
1016.70	82.941
1016.86	92.241
1017.03	87.193
1017.19	79.052
1017.35	73.349
1017.51	80.000
1017.68	82.857
1017.84	70.353
1018.00	79.634
1018.16	79.167
1018.33	78.090
1018.49	88.889
1018.65	73.297
1018.81	77.982
1018.97	74.221
1019.14	81.744
1019.30	71.388
1019.46	80.756
1019.62	82.031
1019.79	86.834
1019.95	73.008
1020.11	86.604
1020.27	92.131
1020.43	88.772
1020.60	98.106
1020.76	102.622
1020.92	82.633
1021.08	89.803
1021.24	94.099
1021.41	92.667
1021.57	76.149
1021.73	77.049
1021.89	76.316
1022.05	87.108
1022.21	82.778
1022.38	75.429
1022.54	63.610
1022.70	70.000
1022.86	70.605
1023.02	71.884
1023.19	78.618
1023.35	70.096
1023.51	71.474
1023.67	65.698
1023.83	62.977
1023.99	63.028
1024.16	72.222
1024.32	61.165
1024.48	63.121
1024.64	53.974
1024.80	66.312
1024.96	71.605
1025.12	62.069
1025.29	65.371
1025.45	56.429
1025.61	62.258
1025.77	62.816
1025.93	73.913
1026.09	73.359
1026.26	59.797
1026.42	72.951
1026.58	56.055
1026.74	66.667
1026.90	59.819
1027.06	54.455
1027.22	65.101
1027.38	69.504
1027.55	63.592
1027.71	63.953
1027.87	61.356
1028.03	51.793
1028.19	51.525
1028.35	54.613
1028.51	61.688
1028.67	69.962
1028.83	55.411
1029.00	48.966
1029.16	55.000
1029.32	46.992
1029.48	50.000
1029.64	61.967
1029.80	59.350
1029.96	79.365
1030.12	55.311
1030.28	61.053
1030.44	73.016
1030.61	46.835
1030.77	68.033
1030.93	63.492
1031.09	53.725
1031.25	57.360
1031.41	67.470
1031.57	56.540
1031.73	41.250
1031.89	50.883
1032.05	43.071
1032.21	50.204
1032.37	52.518
1032.53	62.172
1032.69	44.635
1032.86	42.308
1033.02	50.498
1033.18	60.769
1033.34	43.011
1033.50	53.368
1033.66	51.321
1033.82	59.707
1033.98	37.500
1034.14	59.908
1034.30	50.763
1034.46	50.000
1034.62	49.020
1034.78	35.662
1034.94	27.437
1035.10	43.689
1035.26	43.299
1035.42	41.391
1035.58	40.794
1035.74	55.187
1035.90	56.585
1036.06	47.940
1036.22	22.901
1036.38	57.269
1036.54	40.984
1036.70	21.250
1036.86	58.763
1037.02	41.758
1037.18	61.905
1037.34	34.127
1037.50	50.485
1037.66	31.579
1037.82	42.708
1037.98	40.502
1038.14	21.547
1038.30	30.769
1038.46	51.799
1038.62	37.559
1038.78	50.000
1038.94	40.394
1039.10	37.799
1039.26	50.000
1039.42	33.945
1039.58	41.420
1039.74	36.820
1039.90	29.500
1040.06	47.317
>>>>>End Processed Spectral Data<<<<<
