SpectraSuite Data File
++++++++++++++++++++++++++++++++++++
Date: Wed Jan 25 18:17:20 EET 2017
User: TheoProf
Dark Spectrum Present: Yes
Reference Spectrum Present: Yes
Number of Sampled Component Spectra: 1
Spectrometers: USB4C02475
Integration Time (usec): 64136 (USB4C02475)
Spectra Averaged: 1 (USB4C02475)
Boxcar Smoothing: 0 (USB4C02475)
Correct for Electrical Dark: No (USB4C02475)
Strobe/Lamp Enabled: No (USB4C02475)
Correct for Detector Non-linearity: No (USB4C02475)
Correct for Stray Light: No (USB4C02475)
Number of Pixels in Processed Spectrum: 3648
>>>>>Begin Processed Spectral Data<<<<<
344.91	-50.000
345.13	-50.000
345.35	-50.000
345.57	50.000
345.79	225.000
346.00	268.421
346.22	-525.000
346.44	-24.138
346.66	-480.000
346.87	162.069
347.09	100.000
347.31	-4.348
347.53	49.020
347.74	110.526
347.96	157.143
348.18	-33.333
348.40	368.421
348.61	23.077
348.83	109.091
349.05	54.098
349.27	62.500
349.48	147.059
349.70	241.176
349.92	9.677
350.14	122.951
350.35	18.519
350.57	8.333
350.79	111.765
351.01	47.692
351.22	130.000
351.44	93.590
351.66	-240.000
351.87	27.778
352.09	537.500
352.31	-102.857
352.53	16.667
352.74	75.862
352.96	58.000
353.18	-63.415
353.40	500.000
353.61	-57.143
353.83	500.000
354.05	-120.000
354.26	78.788
354.48	126.190
354.70	-100.000
354.92	-130.769
355.13	89.655
355.35	26.415
355.57	94.118
355.78	135.484
356.00	68.750
356.22	69.863
356.44	51.562
356.65	61.538
356.87	-7.692
357.09	70.000
357.30	29.592
357.52	500.000
357.74	41.818
357.95	-0.000
358.17	115.909
358.39	93.023
358.60	171.875
358.82	53.846
359.04	-340.000
359.26	19.608
359.47	52.778
359.69	20.792
359.91	85.000
360.12	90.000
360.34	78.378
360.56	266.667
360.77	12.821
360.99	77.586
361.21	35.714
361.42	-21.277
361.64	525.000
361.86	-87.500
362.07	48.780
362.29	25.000
362.51	100.000
362.72	130.769
362.94	29.231
363.16	72.727
363.37	12.500
363.59	-4.000
363.81	-125.000
364.02	173.469
364.24	-315.385
364.46	50.000
364.67	100.000
364.89	9.091
365.11	57.407
365.32	114.286
365.54	-121.053
365.76	36.782
365.97	27.273
366.19	54.545
366.41	42.857
366.62	122.857
366.84	-200.000
367.05	47.273
367.27	84.848
367.49	-12.903
367.70	42.857
367.92	10.526
368.14	80.952
368.35	-114.706
368.57	30.380
368.79	60.377
369.00	110.204
369.22	90.000
369.43	78.125
369.65	-5.000
369.87	60.000
370.08	-47.222
370.30	300.000
370.51	-60.000
370.73	-1.515
370.95	-15.385
371.16	44.444
371.38	-162.500
371.60	300.000
371.81	76.316
372.03	102.899
372.24	-800.000
372.46	6.897
372.68	20.833
372.89	0.000
373.11	44.068
373.32	62.963
373.54	84.211
373.76	85.714
373.97	83.784
374.19	-17.949
374.40	65.517
374.62	-34.375
374.84	60.000
375.05	22.222
375.27	-20.000
375.48	-47.059
375.70	48.276
375.92	78.846
376.13	-20.000
376.35	-17.460
376.56	57.143
376.78	125.000
376.99	36.923
377.21	-102.326
377.43	-30.769
377.64	33.766
377.86	92.857
378.07	100.000
378.29	38.636
378.51	40.741
378.72	89.041
378.94	21.429
379.15	63.158
379.37	24.000
379.58	75.000
379.80	85.417
380.01	65.789
380.23	24.444
380.45	0.000
380.66	34.783
380.88	122.727
381.09	-40.625
381.31	50.000
381.52	-39.130
381.74	66.316
381.95	-120.000
382.17	-52.273
382.39	-15.517
382.60	50.000
382.82	164.000
383.03	62.500
383.25	-25.000
383.46	-73.684
383.68	22.727
383.89	33.333
384.11	37.288
384.32	116.279
384.54	58.586
384.76	-10.870
384.97	-25.490
385.19	33.333
385.40	-1.613
385.62	36.207
385.83	9.524
386.05	93.333
386.26	18.519
386.48	18.033
386.69	23.457
386.91	0.000
387.12	47.692
387.34	-67.308
387.55	-66.667
387.77	39.726
387.98	22.549
388.20	-1.316
388.41	8.571
388.63	22.000
388.84	64.706
389.06	-9.091
389.27	41.584
389.49	21.538
389.70	60.784
389.92	32.143
390.13	57.143
390.35	48.529
390.56	94.118
390.78	38.636
390.99	-2.817
391.21	61.765
391.42	32.099
391.64	35.000
391.85	113.889
392.07	-200.000
392.28	-6.557
392.50	10.000
392.71	-12.903
392.93	87.931
393.14	19.811
393.36	35.849
393.57	36.559
393.79	-4400.000
394.00	47.059
394.22	38.889
394.43	-5.376
394.65	-14.516
394.86	16.346
395.08	51.899
395.29	37.647
395.50	19.512
395.72	45.161
395.93	27.820
396.15	16.935
396.36	27.586
396.58	16.522
396.79	51.351
397.01	21.875
397.22	38.806
397.44	5.042
397.65	28.333
397.87	43.243
398.08	30.769
398.29	32.353
398.51	64.000
398.72	34.848
398.94	-22.807
399.15	6.931
399.37	51.493
399.58	41.489
399.80	10.784
400.01	54.762
400.22	37.037
400.44	21.111
400.65	16.912
400.87	11.207
401.08	29.545
401.30	-13.889
401.51	-61.290
401.72	17.419
401.94	46.552
402.15	3.448
402.37	11.321
402.58	16.667
402.80	10.959
403.01	-1.235
403.22	15.789
403.44	18.182
403.65	41.912
403.87	14.286
404.08	3.205
404.30	14.615
404.51	2.542
404.72	24.823
404.94	25.191
405.15	-10.135
405.37	22.835
405.58	1.429
405.79	-18.947
406.01	20.261
406.22	-15.200
406.44	14.894
406.65	16.875
406.86	4.636
407.08	15.741
407.29	9.868
407.51	28.846
407.72	14.583
407.93	20.395
408.15	38.037
408.36	21.168
408.58	9.730
408.79	10.563
409.00	25.161
409.22	8.197
409.43	44.681
409.64	-21.094
409.86	-3.086
410.07	8.228
410.29	14.019
410.50	-20.339
410.71	-9.804
410.93	18.182
411.14	15.337
411.35	-5.882
411.57	-30.723
411.78	-14.201
412.00	15.385
412.21	-19.863
412.42	11.976
412.64	9.091
412.85	-2.924
413.06	10.550
413.28	5.333
413.49	21.739
413.70	3.390
413.92	7.586
414.13	-8.036
414.34	15.183
414.56	12.883
414.77	17.059
414.98	4.188
415.20	-4.046
415.41	-7.222
415.63	5.263
415.84	4.902
416.05	30.000
416.27	-7.727
416.48	-0.820
416.69	2.252
416.91	-1.449
417.12	21.875
417.33	27.426
417.55	-1.744
417.76	13.218
417.97	0.488
418.19	26.812
418.40	1.099
418.61	6.723
418.83	2.262
419.04	18.018
419.25	22.541
419.46	17.904
419.68	24.762
419.89	1.070
420.10	25.941
420.32	15.139
420.53	12.048
420.74	13.077
420.96	8.765
421.17	15.415
421.38	7.280
421.60	12.083
421.81	13.750
422.02	18.008
422.23	1.245
422.45	13.704
422.66	18.750
422.87	7.634
423.09	-0.881
423.30	6.019
423.51	31.365
423.73	12.554
423.94	19.377
424.15	16.988
424.36	21.562
424.58	21.107
424.79	9.241
425.00	21.479
425.22	36.667
425.43	28.623
425.64	36.688
425.85	21.862
426.07	16.088
426.28	24.658
426.49	24.354
426.71	28.363
426.92	21.006
427.13	30.693
427.34	35.455
427.56	35.119
427.77	44.922
427.98	28.226
428.19	35.135
428.41	33.447
428.62	23.973
428.83	41.504
429.04	42.547
429.26	43.953
429.47	57.538
429.68	35.077
429.89	60.417
430.11	42.708
430.32	37.995
430.53	41.190
430.74	45.031
430.96	46.597
431.17	45.584
431.38	51.290
431.59	36.697
431.81	31.183
432.02	28.652
432.23	42.045
432.44	46.410
432.66	43.575
432.87	44.985
433.08	42.361
433.29	48.477
433.51	47.059
433.72	41.920
433.93	40.093
434.14	42.019
434.35	45.036
434.57	40.881
434.78	53.253
434.99	47.198
435.20	51.650
435.42	55.328
435.63	54.059
435.84	51.884
436.05	60.141
436.26	59.266
436.48	57.757
436.69	54.681
436.90	56.622
437.11	56.797
437.32	53.653
437.54	58.420
437.75	67.594
437.96	58.683
438.17	69.451
438.38	78.514
438.60	69.590
438.81	66.867
439.02	69.763
439.23	68.889
439.44	78.711
439.66	69.286
439.87	81.202
440.08	87.190
440.29	78.295
440.50	80.388
440.72	68.650
440.93	73.440
441.14	82.600
441.35	85.465
441.56	77.897
441.77	79.803
441.99	75.788
442.20	84.050
442.41	83.005
442.62	80.517
442.83	79.392
443.04	81.506
443.26	73.525
443.47	72.481
443.68	78.114
443.89	80.479
444.10	75.986
444.31	77.677
444.53	76.294
444.74	75.949
444.95	78.300
445.16	68.289
445.37	76.214
445.58	66.129
445.80	80.291
446.01	74.637
446.22	81.197
446.43	63.344
446.64	67.994
446.85	74.351
447.06	77.952
447.28	78.216
447.49	88.836
447.70	79.969
447.91	76.471
448.12	80.267
448.33	75.034
448.54	76.816
448.76	78.663
448.97	80.818
449.18	81.260
449.39	82.695
449.60	80.899
449.81	80.357
450.02	82.652
450.23	76.693
450.45	78.684
450.66	76.478
450.87	84.852
451.08	78.094
451.29	92.490
451.50	79.183
451.71	85.359
451.92	77.328
452.13	82.836
452.35	76.350
452.56	73.408
452.77	85.935
452.98	88.356
453.19	85.185
453.40	81.234
453.61	84.698
453.82	90.544
454.03	81.104
454.25	78.581
454.46	87.583
454.67	84.928
454.88	69.794
455.09	76.629
455.30	72.904
455.51	78.335
455.72	76.235
455.93	86.753
456.14	81.374
456.35	76.932
456.56	84.530
456.78	83.729
456.99	78.731
457.20	81.174
457.41	87.852
457.62	73.935
457.83	77.582
458.04	73.069
458.25	75.544
458.46	78.751
458.67	74.586
458.88	75.825
459.09	69.706
459.30	69.444
459.51	74.655
459.73	80.106
459.94	74.659
460.15	80.061
460.36	75.097
460.57	74.887
460.78	71.767
460.99	73.886
461.20	75.576
461.41	72.161
461.62	79.581
461.83	77.951
462.04	80.463
462.25	78.975
462.46	86.636
462.67	75.894
462.88	84.142
463.09	87.100
463.30	84.622
463.51	86.368
463.72	88.075
463.93	81.138
464.15	84.115
464.36	81.102
464.57	77.430
464.78	78.267
464.99	71.936
465.20	76.736
465.41	76.075
465.62	74.480
465.83	77.253
466.04	82.913
466.25	76.143
466.46	74.662
466.67	76.109
466.88	72.190
467.09	68.197
467.30	72.752
467.51	73.729
467.72	75.939
467.93	75.847
468.14	72.390
468.35	68.191
468.56	66.688
468.77	69.071
468.98	67.350
469.19	64.795
469.40	63.855
469.61	61.577
469.82	61.794
470.03	61.963
470.24	58.521
470.45	57.683
470.66	55.594
470.87	55.975
471.08	54.545
471.29	55.332
471.50	46.480
471.71	44.489
471.92	43.269
472.13	38.103
472.34	38.334
472.55	33.047
472.76	32.149
472.97	26.099
473.18	24.471
473.39	24.059
473.60	20.482
473.81	19.779
474.01	14.074
474.22	16.036
474.43	10.212
474.64	6.888
474.85	7.336
475.06	5.288
475.27	6.473
475.48	3.843
475.69	4.554
475.90	2.423
476.11	4.436
476.32	3.659
476.53	1.438
476.74	3.547
476.95	1.330
477.16	1.153
477.37	2.219
477.58	2.402
477.79	1.800
478.00	1.850
478.21	2.567
478.41	3.486
478.62	1.299
478.83	1.201
479.04	0.973
479.25	2.451
479.46	1.812
479.67	2.905
479.88	4.343
480.09	0.696
480.30	2.167
480.51	0.996
480.72	1.043
480.93	2.406
481.14	0.508
481.34	3.081
481.55	1.219
481.76	-0.563
481.97	1.645
482.18	2.085
482.39	2.590
482.60	2.092
482.81	0.775
483.02	1.737
483.23	0.954
483.44	2.359
483.65	2.462
483.85	2.663
484.06	1.601
484.27	1.255
484.48	2.782
484.69	1.081
484.90	2.231
485.11	1.664
485.32	1.774
485.53	0.605
485.73	1.729
485.94	1.169
486.15	1.483
486.36	1.119
486.57	1.875
486.78	1.355
486.99	1.434
487.20	-0.234
487.41	0.776
487.61	1.644
487.82	2.365
488.03	2.165
488.24	1.653
488.45	0.768
488.66	0.471
488.87	2.878
489.08	1.460
489.28	1.451
489.49	1.057
489.70	1.530
489.91	0.250
490.12	2.357
490.33	2.647
490.54	1.697
490.74	2.140
490.95	1.357
491.16	0.932
491.37	0.678
491.58	2.084
491.79	1.890
492.00	1.773
492.20	1.610
492.41	0.188
492.62	0.900
492.83	0.881
493.04	1.894
493.25	1.128
493.45	1.001
493.66	1.478
493.87	2.258
494.08	0.365
494.29	1.129
494.50	0.279
494.70	1.854
494.91	1.130
495.12	0.540
495.33	0.980
495.54	0.606
495.75	0.269
495.95	1.470
496.16	0.514
496.37	0.648
496.58	-0.022
496.79	1.675
496.99	1.850
497.20	1.140
497.41	1.410
497.62	1.354
497.83	0.849
498.04	0.300
498.24	1.731
498.45	1.397
498.66	1.128
498.87	1.397
499.08	0.537
499.28	0.714
499.49	1.302
499.70	1.331
499.91	0.346
500.12	0.930
500.32	0.020
500.53	0.746
500.74	0.825
500.95	1.009
501.15	0.393
501.36	2.040
501.57	1.086
501.78	0.941
501.99	2.185
502.19	0.813
502.40	1.305
502.61	1.818
502.82	0.629
503.02	0.965
503.23	0.589
503.44	0.479
503.65	0.734
503.86	1.702
504.06	1.058
504.27	0.622
504.48	0.957
504.69	0.934
504.89	0.690
505.10	1.732
505.31	1.458
505.52	2.005
505.72	1.737
505.93	2.606
506.14	1.685
506.35	1.001
506.55	1.461
506.76	1.666
506.97	2.158
507.18	1.073
507.38	1.502
507.59	0.592
507.80	0.792
508.01	1.627
508.21	1.017
508.42	1.198
508.63	1.276
508.84	1.555
509.04	1.231
509.25	1.159
509.46	1.413
509.67	0.687
509.87	1.216
510.08	1.751
510.29	1.195
510.49	1.103
510.70	0.556
510.91	1.338
511.12	1.172
511.32	0.859
511.53	0.636
511.74	1.361
511.94	1.755
512.15	1.138
512.36	1.654
512.57	1.864
512.77	1.252
512.98	0.620
513.19	1.404
513.39	1.008
513.60	1.451
513.81	1.198
514.01	1.556
514.22	2.502
514.43	2.626
514.64	2.728
514.84	3.297
515.05	3.325
515.26	3.872
515.46	3.989
515.67	3.764
515.88	4.713
516.08	5.791
516.29	6.664
516.50	7.838
516.70	7.801
516.91	9.484
517.12	9.832
517.32	10.848
517.53	12.057
517.74	12.779
517.95	13.563
518.15	14.736
518.36	16.669
518.57	17.605
518.77	19.770
518.98	21.942
519.19	23.602
519.39	23.789
519.60	26.224
519.80	27.572
520.01	28.051
520.22	28.937
520.42	31.375
520.63	32.628
520.84	32.396
521.04	35.003
521.25	35.269
521.46	34.953
521.66	36.006
521.87	37.781
522.08	39.295
522.28	41.119
522.49	42.188
522.70	42.696
522.90	43.331
523.11	42.921
523.31	43.136
523.52	43.453
523.73	45.815
523.93	45.437
524.14	45.594
524.35	45.518
524.55	43.830
524.76	44.166
524.97	44.021
525.17	44.947
525.38	44.527
525.58	44.617
525.79	44.909
526.00	46.119
526.20	47.156
526.41	47.452
526.61	46.294
526.82	47.235
527.03	48.850
527.23	50.135
527.44	49.322
527.64	48.923
527.85	50.742
528.06	51.464
528.26	51.273
528.47	52.026
528.68	53.853
528.88	55.043
529.09	56.508
529.29	57.745
529.50	58.664
529.70	60.828
529.91	62.916
530.12	62.988
530.32	66.326
530.53	68.994
530.73	71.174
530.94	73.291
531.15	76.229
531.35	79.670
531.56	81.412
531.76	82.027
531.97	84.183
532.17	83.565
532.38	85.045
532.59	85.336
532.79	86.230
533.00	87.424
533.20	87.080
533.41	87.738
533.61	88.876
533.82	89.140
534.03	88.931
534.23	86.843
534.44	88.162
534.64	88.687
534.85	86.776
535.05	87.458
535.26	90.609
535.46	88.561
535.67	89.505
535.88	89.328
536.08	88.485
536.29	89.314
536.49	87.196
536.70	87.069
536.90	86.436
537.11	88.324
537.31	91.270
537.52	90.301
537.72	91.384
537.93	88.531
538.13	88.489
538.34	90.189
538.55	90.451
538.75	92.263
538.96	88.747
539.16	87.318
539.37	86.923
539.57	88.993
539.78	89.884
539.98	89.077
540.19	89.464
540.39	87.132
540.60	89.120
540.80	89.009
541.01	87.635
541.21	87.305
541.42	87.296
541.62	84.340
541.83	86.549
542.03	86.744
542.24	86.466
542.44	86.169
542.65	86.232
542.85	85.703
543.06	85.740
543.26	86.572
543.47	86.449
543.67	86.675
543.88	89.226
544.08	88.389
544.29	86.793
544.49	89.435
544.70	91.164
544.90	90.384
545.11	90.951
545.31	90.129
545.52	91.720
545.72	91.027
545.93	88.786
546.13	87.264
546.34	84.693
546.54	86.213
546.75	89.645
546.95	93.255
547.15	94.891
547.36	94.987
547.56	93.375
547.77	93.349
547.97	93.113
548.18	95.309
548.38	95.577
548.59	94.443
548.79	94.686
549.00	92.927
549.20	93.556
549.41	94.394
549.61	92.451
549.81	91.620
550.02	89.878
550.22	90.331
550.43	89.888
550.63	91.940
550.84	90.470
551.04	91.092
551.25	91.387
551.45	91.718
551.65	92.176
551.86	92.110
552.06	93.154
552.27	92.363
552.47	92.056
552.68	92.179
552.88	92.822
553.08	92.475
553.29	92.048
553.49	92.470
553.70	93.612
553.90	95.673
554.11	93.964
554.31	96.200
554.51	96.316
554.72	95.539
554.92	94.590
555.13	97.102
555.33	95.298
555.53	97.813
555.74	97.625
555.94	94.527
556.15	94.058
556.35	93.771
556.56	95.318
556.76	93.380
556.96	95.567
557.17	92.733
557.37	92.842
557.58	93.574
557.78	94.007
557.98	92.276
558.19	92.213
558.39	92.009
558.59	89.652
558.80	90.271
559.00	90.410
559.21	90.847
559.41	91.624
559.61	89.655
559.82	89.870
560.02	89.624
560.23	88.907
560.43	88.379
560.63	88.396
560.84	89.025
561.04	88.162
561.24	89.026
561.45	92.687
561.65	93.898
561.85	92.194
562.06	91.112
562.26	93.361
562.47	93.384
562.67	91.088
562.87	90.348
563.08	87.836
563.28	89.765
563.48	89.453
563.69	87.273
563.89	87.160
564.09	87.939
564.30	88.557
564.50	88.569
564.70	89.482
564.91	90.191
565.11	87.640
565.31	87.379
565.52	85.222
565.72	87.531
565.92	86.505
566.13	84.975
566.33	85.582
566.53	84.915
566.74	86.394
566.94	86.063
567.14	87.853
567.35	85.175
567.55	85.696
567.75	86.469
567.96	88.503
568.16	87.701
568.36	86.964
568.57	87.284
568.77	85.467
568.97	84.831
569.18	83.824
569.38	82.306
569.58	82.446
569.79	81.757
569.99	79.571
570.19	81.655
570.39	82.193
570.60	82.065
570.80	81.445
571.00	81.188
571.21	79.175
571.41	77.341
571.61	74.468
571.82	70.678
572.02	69.386
572.22	66.498
572.42	65.987
572.63	64.852
572.83	63.913
573.03	60.377
573.24	56.152
573.44	52.002
573.64	48.434
573.84	43.222
574.05	41.214
574.25	37.319
574.45	34.816
574.66	31.688
574.86	29.721
575.06	27.501
575.26	25.285
575.47	23.691
575.67	20.449
575.87	18.314
576.07	16.428
576.28	15.098
576.48	13.261
576.68	12.067
576.88	10.691
577.09	9.952
577.29	8.677
577.49	8.032
577.69	6.676
577.90	5.799
578.10	5.082
578.30	4.585
578.50	4.046
578.71	3.547
578.91	3.341
579.11	2.976
579.31	2.640
579.52	2.250
579.72	2.244
579.92	1.901
580.12	1.938
580.33	1.538
580.53	1.691
580.73	1.442
580.93	1.082
581.13	1.503
581.34	1.242
581.54	1.035
581.74	1.060
581.94	0.664
582.15	0.997
582.35	1.153
582.55	1.004
582.75	0.953
582.95	0.924
583.16	1.036
583.36	0.980
583.56	1.081
583.76	1.016
583.96	1.273
584.17	1.041
584.37	0.879
584.57	1.062
584.77	0.914
584.97	0.814
585.18	0.922
585.38	1.058
585.58	0.779
585.78	0.858
585.98	0.954
586.19	0.806
586.39	0.784
586.59	0.756
586.79	0.675
586.99	1.292
587.20	0.710
587.40	0.996
587.60	0.761
587.80	0.999
588.00	0.577
588.20	0.836
588.41	0.660
588.61	1.118
588.81	0.800
589.01	0.606
589.21	0.818
589.41	0.858
589.62	0.756
589.82	0.704
590.02	0.799
590.22	0.719
590.42	1.143
590.62	0.709
590.83	0.760
591.03	0.679
591.23	0.729
591.43	0.700
591.63	1.081
591.83	0.903
592.03	0.427
592.24	0.659
592.44	0.625
592.64	0.748
592.84	0.737
593.04	0.590
593.24	0.946
593.44	0.800
593.65	0.950
593.85	0.911
594.05	0.558
594.25	0.889
594.45	0.656
594.65	0.888
594.85	0.618
595.06	0.758
595.26	0.521
595.46	0.649
595.66	0.564
595.86	0.810
596.06	0.896
596.26	1.107
596.46	0.793
596.66	0.674
596.87	0.733
597.07	0.531
597.27	0.378
597.47	0.887
597.67	0.609
597.87	0.583
598.07	0.469
598.27	0.526
598.47	0.924
598.67	0.880
598.88	0.810
599.08	0.611
599.28	0.890
599.48	0.864
599.68	0.602
599.88	0.663
600.08	0.694
600.28	0.895
600.48	0.730
600.68	0.865
600.88	0.631
601.09	0.823
601.29	0.545
601.49	0.981
601.69	0.805
601.89	0.592
602.09	0.859
602.29	0.703
602.49	0.708
602.69	0.953
602.89	0.637
603.09	0.803
603.29	0.676
603.49	0.538
603.69	0.748
603.90	0.942
604.10	0.890
604.30	0.925
604.50	0.998
604.70	1.013
604.90	1.022
605.10	1.002
605.30	1.281
605.50	1.175
605.70	1.356
605.90	1.511
606.10	1.430
606.30	2.147
606.50	1.993
606.70	2.494
606.90	2.796
607.10	2.675
607.30	3.419
607.50	4.234
607.70	4.391
607.90	4.653
608.10	5.474
608.30	5.887
608.50	6.551
608.70	6.715
608.90	7.525
609.11	7.911
609.31	8.704
609.51	9.770
609.71	10.173
609.91	10.953
610.11	12.149
610.31	13.108
610.51	14.289
610.71	15.677
610.91	17.225
611.11	19.117
611.31	20.081
611.51	21.429
611.71	22.180
611.91	22.988
612.11	24.076
612.31	25.398
612.51	26.141
612.71	27.431
612.91	28.536
613.11	28.776
613.31	29.321
613.51	29.417
613.71	30.222
613.91	31.512
614.11	32.228
614.31	32.819
614.50	33.469
614.70	34.117
614.90	34.919
615.10	35.982
615.30	36.262
615.50	36.987
615.70	37.427
615.90	38.131
616.10	37.710
616.30	38.207
616.50	38.375
616.70	39.811
616.90	40.085
617.10	40.622
617.30	40.688
617.50	40.143
617.70	41.429
617.90	41.869
618.10	42.993
618.30	42.717
618.50	43.301
618.70	43.216
618.90	43.922
619.10	44.469
619.30	44.753
619.49	45.208
619.69	45.369
619.89	44.148
620.09	44.005
620.29	44.330
620.49	45.268
620.69	46.928
620.89	49.121
621.09	50.797
621.29	51.526
621.49	50.792
621.69	52.930
621.89	52.431
622.09	52.804
622.29	54.204
622.48	55.143
622.68	56.743
622.88	56.795
623.08	57.806
623.28	57.004
623.48	59.428
623.68	60.805
623.88	62.130
624.08	64.934
624.28	67.092
624.48	70.277
624.67	71.496
624.87	73.184
625.07	75.316
625.27	75.887
625.47	76.790
625.67	78.271
625.87	80.459
626.07	81.732
626.27	82.427
626.47	83.980
626.66	83.286
626.86	82.671
627.06	81.445
627.26	80.479
627.46	81.838
627.66	83.035
627.86	85.106
628.06	85.607
628.25	86.313
628.45	84.246
628.65	84.248
628.85	84.648
629.05	86.348
629.25	85.709
629.45	86.595
629.65	86.717
629.84	86.771
630.04	85.771
630.24	85.900
630.44	85.601
630.64	84.143
630.84	83.686
631.04	83.239
631.23	82.942
631.43	81.199
631.63	80.454
631.83	81.930
632.03	83.088
632.23	82.316
632.42	83.073
632.62	83.162
632.82	83.908
633.02	83.949
633.22	83.969
633.42	83.920
633.62	85.056
633.81	85.161
634.01	85.798
634.21	85.407
634.41	84.799
634.61	84.988
634.80	86.590
635.00	85.607
635.20	87.630
635.40	87.574
635.60	86.331
635.80	86.949
635.99	85.374
636.19	84.316
636.39	85.245
636.59	84.344
636.79	82.526
636.98	82.490
637.18	82.655
637.38	85.065
637.58	88.840
637.78	90.451
637.97	90.624
638.17	89.503
638.37	87.862
638.57	87.071
638.77	86.461
638.96	84.655
639.16	84.174
639.36	83.998
639.56	83.891
639.76	84.581
639.95	85.235
640.15	85.626
640.35	86.233
640.55	84.170
640.75	84.776
640.94	86.420
641.14	85.534
641.34	85.342
641.54	86.593
641.73	86.688
641.93	85.476
642.13	84.157
642.33	82.081
642.53	82.252
642.72	82.654
642.92	84.032
643.12	85.544
643.32	87.942
643.51	89.330
643.71	88.860
643.91	88.039
644.11	87.713
644.30	87.803
644.50	86.035
644.70	85.261
644.90	84.068
645.09	84.977
645.29	85.785
645.49	85.362
645.69	86.384
645.88	87.279
646.08	88.091
646.28	88.807
646.48	88.829
646.67	90.085
646.87	91.254
647.07	92.599
647.26	92.428
647.46	90.404
647.66	89.603
647.86	91.074
648.05	92.191
648.25	92.414
648.45	94.251
648.65	96.454
648.84	95.320
649.04	95.293
649.24	96.216
649.43	94.428
649.63	94.189
649.83	92.154
650.03	91.694
650.22	91.408
650.42	91.657
650.62	93.197
650.81	90.519
651.01	91.248
651.21	89.328
651.40	89.064
651.60	87.949
651.80	88.823
652.00	87.573
652.19	88.251
652.39	88.896
652.59	88.029
652.78	87.537
652.98	87.120
653.18	87.695
653.37	86.930
653.57	87.802
653.77	87.684
653.96	90.500
654.16	92.883
654.36	92.770
654.55	91.234
654.75	89.512
654.95	88.152
655.14	88.465
655.34	88.983
655.54	89.800
655.73	88.197
655.93	88.368
656.13	87.461
656.32	89.948
656.52	92.242
656.72	91.756
656.91	92.884
657.11	92.047
657.31	90.984
657.50	89.864
657.70	89.646
657.90	90.711
658.09	91.290
658.29	91.650
658.49	88.986
658.68	88.639
658.88	88.271
659.07	87.018
659.27	85.718
659.47	84.356
659.66	85.121
659.86	85.415
660.06	85.589
660.25	83.590
660.45	82.770
660.64	81.610
660.84	79.269
661.04	76.949
661.23	75.221
661.43	73.988
661.63	73.142
661.82	69.895
662.02	68.125
662.21	66.056
662.41	63.771
662.61	61.972
662.80	59.581
663.00	57.390
663.19	54.911
663.39	52.969
663.59	50.543
663.78	49.453
663.98	47.354
664.17	46.693
664.37	45.028
664.57	42.301
664.76	40.208
664.96	37.512
665.15	34.677
665.35	31.064
665.55	28.816
665.74	26.868
665.94	24.775
666.13	23.578
666.33	22.028
666.53	20.931
666.72	19.901
666.92	18.769
667.11	17.665
667.31	15.852
667.50	14.539
667.70	12.867
667.90	11.586
668.09	10.608
668.29	9.082
668.48	8.101
668.68	7.791
668.87	6.667
669.07	5.773
669.26	4.969
669.46	4.737
669.66	3.866
669.85	3.621
670.05	3.216
670.24	2.887
670.44	2.699
670.63	2.472
670.83	2.145
671.02	1.954
671.22	1.848
671.42	1.651
671.61	1.430
671.81	1.328
672.00	1.217
672.20	1.182
672.39	1.041
672.59	1.080
672.78	0.802
672.98	0.708
673.17	0.528
673.37	0.751
673.56	0.881
673.76	0.828
673.95	0.396
674.15	0.515
674.34	0.552
674.54	0.332
674.73	0.529
674.93	0.510
675.13	0.440
675.32	0.317
675.52	0.379
675.71	0.334
675.91	0.324
676.10	0.354
676.30	0.435
676.49	0.465
676.69	0.530
676.88	0.151
677.08	0.255
677.27	0.322
677.47	0.317
677.66	0.341
677.86	0.582
678.05	0.305
678.24	0.296
678.44	0.209
678.63	0.315
678.83	0.293
679.02	0.352
679.22	0.218
679.41	0.272
679.61	0.219
679.80	0.331
680.00	0.463
680.19	0.254
680.39	0.077
680.58	0.286
680.78	0.334
680.97	0.325
681.17	0.375
681.36	0.315
681.56	0.170
681.75	0.291
681.94	0.170
682.14	0.196
682.33	0.143
682.53	0.188
682.72	0.202
682.92	0.280
683.11	-0.032
683.31	-0.016
683.50	0.120
683.69	0.310
683.89	0.232
684.08	0.153
684.28	0.117
684.47	0.045
684.67	0.185
684.86	0.300
685.06	0.205
685.25	0.070
685.44	0.207
685.64	0.037
685.83	0.345
686.03	0.130
686.22	0.334
686.42	0.065
686.61	0.065
686.80	0.221
687.00	0.166
687.19	0.050
687.39	0.104
687.58	0.305
687.77	0.260
687.97	0.280
688.16	0.164
688.36	0.142
688.55	0.079
688.74	0.187
688.94	-0.043
689.13	0.113
689.33	0.147
689.52	0.108
689.71	0.114
689.91	0.056
690.10	0.084
690.30	0.056
690.49	0.101
690.68	-0.021
690.88	0.114
691.07	0.218
691.27	0.026
691.46	-0.034
691.65	0.070
691.85	-0.052
692.04	-0.177
692.23	0.040
692.43	0.022
692.62	0.062
692.82	-0.183
693.01	0.076
693.20	0.149
693.40	0.222
693.59	0.149
693.78	0.028
693.98	-0.056
694.17	0.165
694.36	-0.064
694.56	-0.093
694.75	-0.008
694.94	0.264
695.14	0.020
695.33	-0.033
695.53	-0.038
695.72	0.025
695.91	0.201
696.11	0.043
696.30	0.089
696.49	-0.004
696.69	0.030
696.88	0.029
697.07	0.119
697.27	-0.090
697.46	-0.041
697.65	0.335
697.85	0.056
698.04	0.068
698.23	-0.113
698.43	0.125
698.62	-0.065
698.81	0.056
699.01	-0.070
699.20	-0.021
699.39	0.021
699.58	0.022
699.78	0.054
699.97	-0.106
700.16	-0.053
700.36	-0.077
700.55	-0.021
700.74	0.141
700.94	0.207
701.13	0.033
701.32	0.074
701.52	-0.090
701.71	-0.024
701.90	-0.008
702.09	0.020
702.29	-0.148
702.48	0.149
702.67	-0.008
702.87	-0.122
703.06	-0.189
703.25	0.021
703.44	-0.036
703.64	-0.037
703.83	-0.066
704.02	0.075
704.22	-0.017
704.41	-0.052
704.60	-0.119
704.79	-0.088
704.99	0.004
705.18	0.026
705.37	-0.004
705.56	0.107
705.76	-0.008
705.95	0.071
706.14	-0.092
706.33	-0.262
706.53	0.055
706.72	-0.029
706.91	0.008
707.11	0.038
707.30	-0.051
707.49	0.095
707.68	-0.022
707.88	-0.013
708.07	0.026
708.26	0.034
708.45	0.094
708.64	-0.004
708.84	0.151
709.03	0.000
709.22	0.083
709.41	0.050
709.61	-0.122
709.80	-0.059
709.99	-0.064
710.18	0.047
710.38	-0.199
710.57	0.065
710.76	0.136
710.95	-0.048
711.14	-0.092
711.34	0.042
711.53	0.062
711.72	-0.025
711.91	-0.141
712.11	0.058
712.30	0.127
712.49	-0.158
712.68	0.056
712.87	-0.056
713.07	0.145
713.26	-0.044
713.45	0.079
713.64	0.000
713.83	-0.017
714.03	0.017
714.22	-0.138
714.41	-0.013
714.60	-0.160
714.79	0.082
714.99	0.060
715.18	0.009
715.37	0.018
715.56	0.120
715.75	0.094
715.94	0.278
716.14	0.031
716.33	0.040
716.52	-0.245
716.71	0.082
716.90	0.059
717.10	-0.014
717.29	-0.063
717.48	0.054
717.67	-0.152
717.86	0.018
718.05	-0.106
718.24	0.044
718.44	-0.080
718.63	-0.075
718.82	0.160
719.01	-0.239
719.20	0.027
719.39	-0.163
719.59	-0.180
719.78	0.145
719.97	-0.218
720.16	-0.122
720.35	0.009
720.54	0.074
720.73	-0.131
720.93	0.327
721.12	-0.051
721.31	0.135
721.50	0.098
721.69	-0.090
721.88	-0.034
722.07	0.043
722.27	0.047
722.46	-0.251
722.65	0.000
722.84	-0.129
723.03	0.038
723.22	0.024
723.41	0.000
723.60	0.068
723.79	-0.014
723.99	-0.042
724.18	-0.093
724.37	0.047
724.56	-0.085
724.75	0.028
724.94	0.094
725.13	0.066
725.32	0.005
725.51	-0.009
725.71	-0.137
725.90	0.100
726.09	0.047
726.28	-0.081
726.47	0.053
726.66	-0.158
726.85	0.133
727.04	0.174
727.23	0.035
727.42	0.090
727.61	-0.068
727.81	0.058
728.00	0.173
728.19	-0.115
728.38	-0.080
728.57	0.220
728.76	-0.053
728.95	0.029
729.14	0.054
729.33	0.050
729.52	0.181
729.71	-0.030
729.90	-0.106
730.09	-0.223
730.28	-0.085
730.48	-0.056
730.67	0.111
730.86	0.133
731.05	-0.256
731.24	0.169
731.43	0.011
731.62	0.043
731.81	0.076
732.00	0.054
732.19	0.176
732.38	-0.112
732.57	-0.101
732.76	0.127
732.95	0.114
733.14	-0.042
733.33	0.057
733.52	0.163
733.71	0.131
733.90	-0.110
734.09	-0.051
734.28	-0.220
734.47	0.187
734.66	-0.047
734.85	-0.094
735.04	0.234
735.23	-0.016
735.42	-0.061
735.61	0.186
735.81	0.051
736.00	0.017
736.19	-0.229
736.38	0.011
736.57	-0.096
736.76	-0.071
736.95	-0.038
737.14	-0.139
737.33	0.350
737.52	-0.041
737.71	-0.217
737.90	0.191
738.09	-0.042
738.28	-0.092
738.47	-0.203
738.66	-0.006
738.85	-0.116
739.04	0.000
739.22	-0.018
739.41	0.187
739.60	-0.069
739.79	-0.041
739.98	0.057
740.17	0.028
740.36	0.275
740.55	0.028
740.74	0.027
740.93	0.214
741.12	-0.168
741.31	-0.011
741.50	0.017
741.69	0.023
741.88	-0.017
742.07	0.023
742.26	0.132
742.45	0.092
742.64	0.133
742.83	0.303
743.02	-0.224
743.21	-0.125
743.40	0.090
743.59	-0.019
743.78	0.126
743.97	-0.341
744.16	-0.153
744.34	0.134
744.53	0.275
744.72	-0.033
744.91	0.184
745.10	0.019
745.29	0.032
745.48	0.270
745.67	-0.032
745.86	0.058
746.05	0.032
746.24	-0.019
746.43	-0.057
746.62	0.095
746.81	-0.052
747.00	0.046
747.18	0.110
747.37	0.186
747.56	0.313
747.75	0.155
747.94	-0.079
748.13	0.259
748.32	0.110
748.51	-0.186
748.70	0.090
748.89	0.042
749.08	0.000
749.26	0.000
749.45	-0.151
749.64	-0.014
749.83	-0.149
750.02	-0.079
750.21	-0.297
750.40	0.102
750.59	0.007
750.78	0.074
750.96	0.241
751.15	0.322
751.34	0.157
751.53	-0.166
751.72	-0.008
751.91	-0.096
752.10	0.155
752.29	0.000
752.47	-0.105
752.66	0.114
752.85	0.038
753.04	-0.214
753.23	-0.048
753.42	-0.008
753.61	0.287
753.80	0.136
753.98	0.327
754.17	0.177
754.36	-0.210
754.55	-0.281
754.74	0.060
754.93	-0.087
755.12	0.070
755.30	0.080
755.49	0.309
755.68	0.027
755.87	-0.293
756.06	0.009
756.25	-0.435
756.43	-0.132
756.62	0.208
756.81	0.250
757.00	0.321
757.19	0.159
757.38	0.045
757.56	0.195
757.75	0.394
757.94	0.233
758.13	0.541
758.32	0.399
758.51	0.109
758.69	0.178
758.88	-0.060
759.07	0.434
759.26	0.051
759.45	0.124
759.63	0.305
759.82	0.232
760.01	0.320
760.20	-0.611
760.39	0.230
760.57	0.365
760.76	0.256
760.95	0.588
761.14	0.011
761.33	0.011
761.51	0.602
761.70	-0.197
761.89	0.275
762.08	0.520
762.27	0.549
762.45	0.339
762.64	-0.274
762.83	0.552
763.02	0.074
763.21	0.731
763.39	0.165
763.58	-0.255
763.77	0.153
763.96	0.335
764.14	0.891
764.33	0.351
764.52	0.265
764.71	-0.027
764.89	0.067
765.08	0.508
765.27	-0.614
765.46	-0.160
765.65	0.822
765.83	-0.095
766.02	-0.486
766.21	-0.134
766.40	-0.255
766.58	0.260
766.77	0.185
766.96	0.290
767.15	0.625
767.33	0.382
767.52	0.247
767.71	-0.250
767.90	0.266
768.08	0.569
768.27	0.657
768.46	0.000
768.64	-0.828
768.83	-0.181
769.02	0.271
769.21	-0.101
769.39	-0.545
769.58	-0.068
769.77	0.462
769.96	0.324
770.14	0.188
770.33	0.776
770.52	0.931
770.70	-0.256
770.89	0.000
771.08	-0.647
771.27	0.533
771.45	-0.086
771.64	0.000
771.83	0.696
772.01	0.315
772.20	0.104
772.39	0.683
772.57	-0.453
772.76	0.183
772.95	0.876
773.14	0.204
773.32	0.129
773.51	-0.171
773.70	-0.189
773.88	0.155
774.07	-0.505
774.26	0.038
774.44	0.153
774.63	0.134
774.82	0.176
775.00	0.151
775.19	0.875
775.38	-0.621
775.56	-0.210
775.75	0.211
775.94	-0.236
776.12	0.255
776.31	0.100
776.50	0.898
776.68	1.053
776.87	1.207
777.06	-0.061
777.24	0.183
777.43	-0.226
777.62	-0.144
777.80	-0.102
777.99	0.311
778.18	0.709
778.36	0.209
778.55	-0.166
778.74	-0.124
778.92	-0.560
779.11	1.057
779.29	0.327
779.48	1.623
779.67	-0.636
779.85	0.625
780.04	-0.123
780.23	0.862
780.41	0.122
780.60	-0.957
780.79	0.159
780.97	0.300
781.16	0.433
781.34	-0.398
781.53	0.259
781.72	-0.117
781.90	0.078
782.09	1.611
782.28	0.699
782.46	0.726
782.65	0.842
782.83	0.121
783.02	-0.702
783.21	0.138
783.39	0.535
783.58	-0.560
783.76	0.267
783.95	0.804
784.14	0.280
784.32	0.258
784.51	0.418
784.69	1.042
784.88	-0.073
785.06	-0.018
785.25	0.623
785.44	0.089
785.62	0.720
785.81	0.850
785.99	-0.397
786.18	-0.610
786.37	-0.130
786.55	1.032
786.74	-0.305
786.92	0.237
787.11	0.515
787.29	0.138
787.48	-0.657
787.67	0.611
787.85	0.156
788.04	1.799
788.22	0.347
788.41	0.636
788.59	0.339
788.78	0.657
788.96	0.443
789.15	0.636
789.34	0.057
789.52	-0.520
789.71	0.910
789.89	-0.133
790.08	0.092
790.26	0.433
790.45	-0.335
790.63	0.446
790.82	0.175
791.00	0.350
791.19	0.478
791.38	0.849
791.56	0.160
791.75	0.335
791.93	0.105
792.12	0.970
792.30	0.314
792.49	0.172
792.67	0.500
792.86	0.569
793.04	0.457
793.23	-0.155
793.41	0.450
793.60	0.642
793.78	0.431
793.97	-0.191
794.15	0.817
794.34	1.527
794.52	0.675
794.71	0.767
794.89	0.601
795.08	0.081
795.26	-0.162
795.45	0.645
795.63	0.791
795.82	0.567
796.00	0.608
796.19	0.650
796.37	0.344
796.56	0.638
796.74	1.233
796.93	1.621
797.11	0.798
797.30	1.252
797.48	1.200
797.67	1.697
797.85	1.276
798.04	1.951
798.22	1.724
798.41	1.696
798.59	1.875
798.77	1.621
798.96	1.939
799.14	2.005
799.33	3.039
799.51	2.053
799.70	2.165
799.88	2.709
800.07	2.224
800.25	2.927
800.44	2.787
800.62	2.758
800.80	3.015
800.99	2.677
801.17	2.616
801.36	3.468
801.54	2.960
801.73	3.116
801.91	3.078
802.10	3.245
802.28	3.260
802.46	4.084
802.65	3.120
802.83	3.221
803.02	3.486
803.20	3.387
803.39	3.081
803.57	3.381
803.75	3.246
803.94	3.488
804.12	4.217
804.31	4.622
804.49	3.940
804.67	4.935
804.86	4.076
805.04	4.031
805.23	5.522
805.41	4.412
805.59	5.194
805.78	4.137
805.96	5.744
806.15	5.118
806.33	5.615
806.51	5.495
806.70	6.258
806.88	6.882
807.07	7.137
807.25	7.475
807.43	7.879
807.62	8.917
807.80	8.153
807.99	8.569
808.17	9.265
808.35	9.208
808.54	10.320
808.72	10.946
808.90	11.486
809.09	11.912
809.27	12.258
809.46	13.789
809.64	13.030
809.82	14.076
810.01	15.331
810.19	16.764
810.37	16.333
810.56	17.293
810.74	17.920
810.92	18.513
811.11	19.353
811.29	20.753
811.48	20.230
811.66	20.709
811.84	21.959
812.03	23.742
812.21	23.799
812.39	23.519
812.58	25.169
812.76	26.134
812.94	26.226
813.13	26.512
813.31	27.997
813.49	27.406
813.68	28.262
813.86	28.609
814.04	27.928
814.23	29.393
814.41	30.035
814.59	29.807
814.78	31.619
814.96	30.661
815.14	32.302
815.33	32.473
815.51	30.565
815.69	32.815
815.87	32.630
816.06	31.549
816.24	30.647
816.42	31.410
816.61	32.415
816.79	30.788
816.97	30.022
817.16	30.603
817.34	32.784
817.52	30.342
817.70	29.844
817.89	29.257
818.07	29.239
818.25	28.202
818.44	26.580
818.62	26.760
818.80	25.474
818.98	25.036
819.17	25.462
819.35	26.176
819.53	25.023
819.72	27.012
819.90	24.399
820.08	25.343
820.26	25.304
820.45	24.995
820.63	23.827
820.81	23.644
820.99	23.176
821.18	22.126
821.36	22.618
821.54	21.213
821.73	20.585
821.91	20.328
822.09	18.470
822.27	16.284
822.46	17.498
822.64	18.587
822.82	17.048
823.00	15.840
823.19	16.332
823.37	14.615
823.55	13.609
823.73	14.219
823.91	13.854
824.10	11.561
824.28	12.213
824.46	12.143
824.64	11.789
824.83	11.594
825.01	12.467
825.19	12.070
825.37	11.973
825.56	11.720
825.74	12.760
825.92	11.721
826.10	11.476
826.28	12.126
826.47	13.520
826.65	12.500
826.83	11.572
827.01	13.059
827.19	12.182
827.38	13.707
827.56	14.198
827.74	14.513
827.92	14.562
828.10	14.265
828.29	14.560
828.47	14.870
828.65	14.525
828.83	14.983
829.01	15.047
829.20	15.665
829.38	15.265
829.56	17.300
829.74	16.229
829.92	17.561
830.10	17.084
830.29	16.120
830.47	16.303
830.65	15.966
830.83	16.976
831.01	16.792
831.20	17.896
831.38	16.216
831.56	15.809
831.74	15.602
831.92	15.933
832.10	17.371
832.29	16.054
832.47	17.155
832.65	15.915
832.83	15.585
833.01	16.037
833.19	16.016
833.37	15.443
833.56	15.178
833.74	14.294
833.92	14.865
834.10	14.687
834.28	15.087
834.46	13.944
834.64	13.698
834.83	13.369
835.01	12.161
835.19	13.567
835.37	10.892
835.55	11.356
835.73	13.118
835.91	11.708
836.09	14.016
836.28	12.404
836.46	14.341
836.64	12.710
836.82	13.598
837.00	13.213
837.18	15.091
837.36	15.564
837.54	17.743
837.72	19.443
837.91	19.356
838.09	19.216
838.27	20.703
838.45	20.120
838.63	22.915
838.81	23.914
838.99	24.104
839.17	29.103
839.35	28.238
839.53	29.756
839.72	29.341
839.90	29.074
840.08	29.775
840.26	32.475
840.44	31.678
840.62	32.665
840.80	34.318
840.98	32.855
841.16	33.922
841.34	35.691
841.52	35.517
841.70	37.323
841.89	38.295
842.07	36.557
842.25	38.025
842.43	37.164
842.61	36.999
842.79	39.724
842.97	38.456
843.15	38.501
843.33	37.384
843.51	37.831
843.69	36.784
843.87	37.975
844.05	39.688
844.23	39.525
844.41	40.168
844.59	42.809
844.77	41.704
844.95	40.918
845.13	42.841
845.31	39.635
845.50	41.090
845.68	40.343
845.86	38.548
846.04	38.647
846.22	36.102
846.40	38.246
846.58	37.161
846.76	35.522
846.94	35.784
847.12	36.479
847.30	33.656
847.48	34.465
847.66	33.026
847.84	32.942
848.02	31.774
848.20	31.298
848.38	30.873
848.56	30.228
848.74	30.996
848.92	31.941
849.10	30.534
849.28	29.951
849.46	31.695
849.64	30.255
849.82	27.933
850.00	27.364
850.18	26.678
850.36	25.669
850.54	26.307
850.72	23.947
850.90	24.027
851.08	21.186
851.26	24.948
851.44	23.746
851.62	24.674
851.80	27.832
851.98	27.242
852.16	29.047
852.34	27.732
852.52	27.362
852.70	26.523
852.87	28.824
853.05	27.373
853.23	29.400
853.41	28.624
853.59	29.424
853.77	30.772
853.95	33.236
854.13	33.022
854.31	33.533
854.49	32.284
854.67	31.863
854.85	33.916
855.03	34.972
855.21	33.295
855.39	34.695
855.57	36.479
855.75	37.610
855.93	36.418
856.11	34.359
856.28	39.539
856.46	39.474
856.64	38.552
856.82	39.369
857.00	41.770
857.18	41.153
857.36	42.277
857.54	45.604
857.72	43.994
857.90	45.744
858.08	46.610
858.26	45.103
858.44	48.889
858.61	44.170
858.79	45.862
858.97	45.909
859.15	46.654
859.33	46.511
859.51	49.103
859.69	47.054
859.87	48.890
860.05	44.941
860.23	46.999
860.40	47.139
860.58	44.152
860.76	45.023
860.94	44.678
861.12	44.328
861.30	46.148
861.48	45.362
861.66	44.050
861.84	43.580
862.01	43.767
862.19	43.014
862.37	43.245
862.55	44.214
862.73	41.345
862.91	43.003
863.09	42.953
863.27	41.621
863.44	43.616
863.62	41.636
863.80	42.559
863.98	42.867
864.16	41.637
864.34	41.032
864.52	41.234
864.69	40.080
864.87	40.894
865.05	42.365
865.23	43.489
865.41	41.636
865.59	45.692
865.76	45.143
865.94	45.011
866.12	45.193
866.30	45.059
866.48	42.258
866.66	42.295
866.83	41.626
867.01	45.056
867.19	43.282
867.37	42.328
867.55	42.966
867.73	40.541
867.90	42.225
868.08	41.255
868.26	42.389
868.44	43.626
868.62	42.947
868.79	45.441
868.97	46.679
869.15	43.402
869.33	47.077
869.51	46.947
869.69	47.005
869.86	46.659
870.04	48.239
870.22	45.387
870.40	48.577
870.57	48.831
870.75	49.439
870.93	51.006
871.11	46.345
871.29	49.549
871.46	44.317
871.64	48.204
871.82	46.882
872.00	51.234
872.18	52.086
872.35	49.322
872.53	53.509
872.71	50.126
872.89	51.528
873.06	53.796
873.24	52.894
873.42	52.012
873.60	52.556
873.77	50.954
873.95	55.346
874.13	52.496
874.31	52.394
874.49	52.126
874.66	52.931
874.84	54.463
875.02	53.599
875.20	54.826
875.37	51.011
875.55	52.321
875.73	52.882
875.91	53.095
876.08	54.305
876.26	56.195
876.44	56.519
876.61	55.070
876.79	54.838
876.97	55.942
877.15	56.038
877.32	55.360
877.50	54.751
877.68	53.554
877.86	52.535
878.03	53.954
878.21	50.034
878.39	53.390
878.56	54.667
878.74	53.241
878.92	56.455
879.10	55.390
879.27	55.002
879.45	53.469
879.63	53.940
879.80	53.531
879.98	56.806
880.16	57.749
880.34	57.080
880.51	56.857
880.69	60.069
880.87	59.048
881.04	59.765
881.22	59.452
881.40	58.938
881.57	60.485
881.75	59.943
881.93	61.749
882.10	64.546
882.28	62.568
882.46	61.044
882.63	62.586
882.81	62.024
882.99	64.083
883.16	62.215
883.34	61.792
883.52	60.346
883.69	61.874
883.87	62.683
884.05	64.175
884.22	60.637
884.40	64.693
884.58	63.535
884.75	65.456
884.93	65.078
885.11	66.460
885.28	65.276
885.46	66.027
885.64	64.834
885.81	66.225
885.99	64.492
886.17	66.282
886.34	71.211
886.52	65.790
886.70	67.596
886.87	63.869
887.05	63.125
887.22	63.098
887.40	60.448
887.58	59.993
887.75	60.169
887.93	60.641
888.11	60.997
888.28	62.840
888.46	62.452
888.63	57.517
888.81	60.574
888.99	58.995
889.16	61.165
889.34	62.733
889.51	62.379
889.69	62.142
889.87	61.918
890.04	63.081
890.22	63.801
890.39	63.704
890.57	65.756
890.75	67.287
890.92	68.870
891.10	67.603
891.27	68.032
891.45	66.924
891.63	65.862
891.80	67.191
891.98	65.029
892.15	65.890
892.33	66.007
892.51	65.522
892.68	64.430
892.86	67.258
893.03	66.901
893.21	67.731
893.38	68.313
893.56	65.345
893.74	69.377
893.91	72.075
894.09	67.819
894.26	66.890
894.44	68.923
894.61	67.372
894.79	66.623
894.96	67.919
895.14	69.455
895.32	67.308
895.49	65.044
895.67	65.225
895.84	62.560
896.02	63.736
896.19	61.438
896.37	62.159
896.54	59.645
896.72	57.891
896.89	55.312
897.07	53.183
897.25	51.852
897.42	52.205
897.60	53.151
897.77	53.389
897.95	51.382
898.12	51.506
898.30	51.986
898.47	51.530
898.65	51.162
898.82	47.432
899.00	49.401
899.17	47.473
899.35	45.206
899.52	46.244
899.70	47.065
899.87	45.023
900.05	46.923
900.22	46.852
900.40	47.007
900.57	47.323
900.75	47.416
900.92	46.001
901.10	43.819
901.27	43.481
901.45	44.717
901.62	45.159
901.80	40.956
901.97	44.357
902.15	44.360
902.32	43.540
902.50	46.077
902.67	46.904
902.85	44.231
903.02	46.404
903.20	44.703
903.37	47.481
903.54	48.028
903.72	49.218
903.89	48.348
904.07	49.505
904.24	52.556
904.42	50.786
904.59	50.634
904.77	49.583
904.94	51.282
905.12	51.098
905.29	48.452
905.47	47.987
905.64	49.002
905.81	48.341
905.99	49.827
906.16	52.181
906.34	52.638
906.51	51.843
906.69	53.959
906.86	52.306
907.03	50.706
907.21	55.069
907.38	54.582
907.56	49.701
907.73	50.481
907.91	52.187
908.08	53.653
908.25	51.083
908.43	51.486
908.60	52.065
908.78	52.246
908.95	51.574
909.13	53.273
909.30	50.548
909.47	50.168
909.65	51.502
909.82	48.863
910.00	49.551
910.17	50.000
910.34	49.061
910.52	46.829
910.69	46.556
910.87	45.597
911.04	48.696
911.21	45.508
911.39	46.148
911.56	46.085
911.73	44.992
911.91	46.310
912.08	43.290
912.26	40.693
912.43	43.381
912.60	43.327
912.78	44.549
912.95	42.401
913.13	43.224
913.30	42.658
913.47	45.147
913.65	41.369
913.82	41.600
913.99	42.010
914.17	41.196
914.34	39.124
914.51	40.535
914.69	40.717
914.86	36.445
915.03	42.638
915.21	35.718
915.38	41.238
915.56	40.973
915.73	44.028
915.90	41.189
916.08	42.355
916.25	45.021
916.42	42.100
916.60	45.076
916.77	44.831
916.94	46.341
917.12	42.718
917.29	45.979
917.46	50.051
917.64	47.146
917.81	48.188
917.98	48.384
918.16	48.019
918.33	53.994
918.50	50.640
918.67	48.425
918.85	55.513
919.02	53.628
919.19	54.394
919.37	53.569
919.54	53.872
919.71	51.653
919.89	59.966
920.06	55.758
920.23	55.708
920.41	55.993
920.58	54.850
920.75	57.307
920.92	54.673
921.10	59.598
921.27	58.077
921.44	58.577
921.62	63.170
921.79	61.614
921.96	65.400
922.13	62.720
922.31	62.855
922.48	61.401
922.65	64.045
922.82	63.115
923.00	59.223
923.17	62.201
923.34	63.246
923.52	62.414
923.69	63.111
923.86	58.412
924.03	60.197
924.21	61.361
924.38	64.918
924.55	62.209
924.72	64.135
924.90	64.962
925.07	64.556
925.24	64.003
925.41	71.139
925.59	63.508
925.76	63.674
925.93	62.868
926.10	62.801
926.28	64.255
926.45	61.042
926.62	58.628
926.79	62.121
926.96	58.076
927.14	60.662
927.31	60.734
927.48	60.924
927.65	58.333
927.83	59.761
928.00	55.170
928.17	55.762
928.34	57.695
928.51	57.364
928.69	59.944
928.86	60.660
929.03	61.131
929.20	65.752
929.37	59.622
929.55	64.242
929.72	57.715
929.89	58.242
930.06	59.305
930.23	57.650
930.41	55.474
930.58	59.556
930.75	61.647
930.92	58.789
931.09	63.755
931.27	60.067
931.44	61.293
931.61	68.024
931.78	61.942
931.95	61.759
932.12	64.411
932.30	61.855
932.47	61.706
932.64	66.848
932.81	62.347
932.98	63.450
933.16	66.521
933.33	69.149
933.50	70.620
933.67	68.786
933.84	68.264
934.01	70.888
934.18	64.516
934.36	68.156
934.53	67.985
934.70	68.811
934.87	69.005
935.04	65.563
935.21	69.253
935.38	62.372
935.56	64.561
935.73	64.478
935.90	67.500
936.07	60.918
936.24	63.800
936.41	65.373
936.58	64.464
936.76	65.302
936.93	69.364
937.10	74.165
937.27	65.784
937.44	66.522
937.61	62.288
937.78	65.182
937.95	70.877
938.13	64.246
938.30	68.022
938.47	60.020
938.64	59.326
938.81	59.722
938.98	58.501
939.15	59.000
939.32	56.103
939.49	47.419
939.66	60.412
939.84	58.105
940.01	52.081
940.18	56.737
940.35	54.313
940.52	49.542
940.69	53.403
940.86	48.550
941.03	49.940
941.20	36.564
941.37	48.994
941.54	50.536
941.71	43.333
941.89	44.135
942.06	39.629
942.23	40.544
942.40	47.126
942.57	39.201
942.74	39.142
942.91	34.816
943.08	43.020
943.25	42.371
943.42	41.713
943.59	45.872
943.76	40.621
943.93	36.835
944.10	35.979
944.27	37.399
944.44	38.760
944.61	44.292
944.79	33.662
944.96	45.319
945.13	40.548
945.30	42.412
945.47	39.178
945.64	42.161
945.81	40.305
945.98	40.690
946.15	39.410
946.32	42.003
946.49	38.424
946.66	42.857
946.83	40.110
947.00	40.351
947.17	37.814
947.34	35.226
947.51	42.879
947.68	38.644
947.85	44.595
948.02	35.357
948.19	46.105
948.36	45.854
948.53	44.983
948.70	45.520
948.87	41.379
949.04	38.279
949.21	45.545
949.38	37.755
949.55	39.580
949.72	40.857
949.89	40.156
950.06	34.568
950.23	50.673
950.40	29.353
950.57	38.559
950.74	37.633
950.91	44.853
951.08	44.077
951.25	50.190
951.42	54.064
951.59	47.016
951.76	35.556
951.93	41.367
952.10	46.014
952.27	42.105
952.44	43.469
952.61	50.323
952.77	39.089
952.94	41.870
953.11	42.095
953.28	43.208
953.45	42.480
953.62	33.394
953.79	45.185
953.96	35.938
954.13	36.015
954.30	47.379
954.47	39.115
954.64	42.885
954.81	42.052
954.98	35.175
955.15	43.200
955.32	34.622
955.49	37.378
955.65	39.000
955.82	40.530
955.99	28.164
956.16	40.039
956.33	35.984
956.50	38.327
956.67	26.761
956.84	26.404
957.01	34.012
957.18	38.966
957.35	28.024
957.52	34.739
957.68	33.705
957.85	30.213
958.02	32.331
958.19	35.854
958.36	30.332
958.53	35.417
958.70	41.113
958.87	37.584
959.04	32.821
959.21	30.396
959.37	44.675
959.54	46.897
959.71	22.986
959.88	37.961
960.05	30.166
960.22	38.350
960.39	34.783
960.56	38.158
960.72	37.422
960.89	22.930
961.06	37.708
961.23	39.229
961.40	35.870
961.57	27.546
961.74	31.028
961.90	34.141
962.07	35.021
962.24	38.973
962.41	33.113
962.58	32.692
962.75	38.703
962.92	35.076
963.08	31.685
963.25	48.373
963.42	33.094
963.59	38.136
963.76	39.278
963.93	26.376
964.10	28.372
964.26	30.335
964.43	33.025
964.60	42.353
964.77	36.111
964.94	38.915
965.10	41.529
965.27	32.952
965.44	44.191
965.61	43.478
965.78	44.091
965.95	46.539
966.11	48.618
966.28	45.706
966.45	39.503
966.62	38.462
966.79	40.212
966.95	49.774
967.12	44.144
967.29	47.846
967.46	31.674
967.63	52.128
967.79	42.950
967.96	48.230
968.13	45.614
968.30	46.850
968.47	45.000
968.63	46.908
968.80	44.088
968.97	47.153
969.14	49.703
969.31	46.795
969.47	50.763
969.64	43.687
969.81	43.552
969.98	60.049
970.14	49.024
970.31	43.261
970.48	41.071
970.65	54.588
970.81	51.302
970.98	43.897
971.15	49.057
971.32	42.444
971.48	49.231
971.65	46.361
971.82	42.889
971.99	52.646
972.15	41.093
972.32	42.254
972.49	52.239
972.66	44.420
972.82	37.698
972.99	28.941
973.16	35.043
973.33	57.109
973.49	37.028
973.66	44.444
973.83	53.827
974.00	44.820
974.16	46.818
974.33	55.866
974.50	51.932
974.67	39.753
974.83	56.174
975.00	48.086
975.17	49.425
975.33	50.935
975.50	47.849
975.67	57.373
975.84	43.376
976.00	48.000
976.17	42.588
976.34	54.774
976.50	55.525
976.67	47.936
976.84	45.663
977.00	63.121
977.17	51.268
977.34	52.153
977.50	47.721
977.67	50.685
977.84	47.278
978.01	50.262
978.17	68.766
978.34	65.757
978.51	62.470
978.67	59.633
978.84	45.517
979.01	51.651
979.17	64.211
979.34	51.036
979.51	50.500
979.67	65.534
979.84	55.344
980.01	54.897
980.17	59.483
980.34	70.052
980.51	66.744
980.67	52.468
980.84	50.309
981.01	62.374
981.17	50.196
981.34	46.737
981.50	57.933
981.67	58.561
981.84	65.281
982.00	51.804
982.17	56.489
982.34	58.411
982.50	59.350
982.67	57.106
982.84	66.589
983.00	64.230
983.17	55.505
983.33	57.111
983.50	62.556
983.67	60.573
983.83	61.693
984.00	68.510
984.17	63.519
984.33	62.250
984.50	55.814
984.66	60.567
984.83	57.692
985.00	61.556
985.16	65.316
985.33	65.682
985.49	66.454
985.66	69.476
985.83	62.090
985.99	61.077
986.16	71.820
986.32	67.068
986.49	69.910
986.66	65.148
986.82	68.996
986.99	61.772
987.15	68.458
987.32	72.642
987.49	61.086
987.65	75.991
987.82	56.186
987.98	72.066
988.15	67.684
988.31	63.830
988.48	67.299
988.65	76.720
988.81	60.403
988.98	53.057
989.14	60.664
989.31	62.055
989.47	54.087
989.64	63.063
989.80	58.920
989.97	66.450
990.14	56.596
990.30	69.952
990.47	82.282
990.63	62.181
990.80	63.299
990.96	68.664
991.13	62.723
991.29	77.672
991.46	78.860
991.62	70.000
991.79	64.509
991.95	64.334
992.12	69.615
992.29	67.683
992.45	68.578
992.62	60.314
992.78	78.616
992.95	76.316
993.11	65.324
993.28	86.553
993.44	66.521
993.61	59.336
993.77	80.105
993.94	63.844
994.10	72.152
994.27	70.416
994.43	72.785
994.60	56.500
994.76	62.587
994.93	79.043
995.09	77.358
995.26	69.175
995.42	73.723
995.59	72.296
995.75	70.139
995.92	63.765
996.08	66.824
996.25	72.099
996.41	67.647
996.58	73.059
996.74	63.057
996.91	63.446
997.07	67.561
997.23	72.304
997.40	73.951
997.56	65.187
997.73	81.000
997.89	61.745
998.06	72.467
998.22	70.762
998.39	65.336
998.55	72.979
998.72	70.794
998.88	84.250
999.05	59.953
999.21	70.406
999.37	90.160
999.54	69.192
999.70	71.554
999.87	69.849
1000.03	80.822
1000.20	80.769
1000.36	72.662
1000.52	78.661
1000.69	84.848
1000.85	77.538
1001.02	74.886
1001.18	63.671
1001.35	82.590
1001.51	77.728
1001.67	76.392
1001.84	76.793
1002.00	75.840
1002.17	71.560
1002.33	79.157
1002.50	73.363
1002.66	82.938
1002.82	84.422
1002.99	81.067
1003.15	83.459
1003.32	76.692
1003.48	68.421
1003.64	65.394
1003.81	82.022
1003.97	71.918
1004.14	72.749
1004.30	76.658
1004.46	83.812
1004.63	68.615
1004.79	73.947
1004.95	62.468
1005.12	72.802
1005.28	75.654
1005.45	70.737
1005.61	69.193
1005.77	76.601
1005.94	62.108
1006.10	73.552
1006.26	70.743
1006.43	62.559
1006.59	56.742
1006.76	61.214
1006.92	64.000
1007.08	61.005
1007.25	58.278
1007.41	51.079
1007.57	53.186
1007.74	59.446
1007.90	62.629
1008.06	71.354
1008.23	69.231
1008.39	55.858
1008.55	61.060
1008.72	67.332
1008.88	61.556
1009.04	67.819
1009.21	72.315
1009.37	67.895
1009.53	62.830
1009.70	69.892
1009.86	68.783
1010.02	49.431
1010.19	82.000
1010.35	59.292
1010.51	72.554
1010.68	62.626
1010.84	70.866
1011.00	59.231
1011.17	54.571
1011.33	51.834
1011.49	59.605
1011.66	58.462
1011.82	56.522
1011.98	64.653
1012.14	58.904
1012.31	60.767
1012.47	57.545
1012.63	52.586
1012.80	60.847
1012.96	54.545
1013.12	61.111
1013.29	60.111
1013.45	64.230
1013.61	54.522
1013.77	58.656
1013.94	57.441
1014.10	56.667
1014.26	59.158
1014.43	62.912
1014.59	63.587
1014.75	63.990
1014.91	54.691
1015.08	56.416
1015.24	58.140
1015.40	54.750
1015.56	51.053
1015.73	56.543
1015.89	64.785
1016.05	47.867
1016.21	56.812
1016.38	40.751
1016.54	52.632
1016.70	65.882
1016.86	60.632
1017.03	46.594
1017.19	45.387
1017.35	59.434
1017.51	58.082
1017.68	51.429
1017.84	48.941
1018.00	55.352
1018.16	53.611
1018.33	47.753
1018.49	71.746
1018.65	45.232
1018.81	40.367
1018.97	40.510
1019.14	56.403
1019.30	56.941
1019.46	38.144
1019.62	35.938
1019.79	57.994
1019.95	53.470
1020.11	59.190
1020.27	51.803
1020.43	45.263
1020.60	57.955
1020.76	69.288
1020.92	59.944
1021.08	52.303
1021.24	64.286
1021.41	61.000
1021.57	58.333
1021.73	47.213
1021.89	53.289
1022.05	40.070
1022.21	51.667
1022.38	34.857
1022.54	58.739
1022.70	44.333
1022.86	55.908
1023.02	45.217
1023.19	49.013
1023.35	44.373
1023.51	37.179
1023.67	45.058
1023.83	36.260
1023.99	41.901
1024.16	38.889
1024.32	46.602
1024.48	57.447
1024.64	41.391
1024.80	41.489
1024.96	49.383
1025.12	40.752
1025.29	44.523
1025.45	63.929
1025.61	38.065
1025.77	40.433
1025.93	51.553
1026.09	40.927
1026.26	51.351
1026.42	54.098
1026.58	51.211
1026.74	32.941
1026.90	34.441
1027.06	47.525
1027.22	40.940
1027.38	46.809
1027.55	50.971
1027.71	23.256
1027.87	51.525
1028.03	49.402
1028.19	46.780
1028.35	40.959
1028.51	52.922
1028.67	53.232
1028.83	42.424
1029.00	46.207
1029.16	47.188
1029.32	43.609
1029.48	37.891
1029.64	53.115
1029.80	49.187
1029.96	42.857
1030.12	50.916
1030.28	41.754
1030.44	47.619
1030.61	35.021
1030.77	45.082
1030.93	36.905
1031.09	43.137
1031.25	38.579
1031.41	49.799
1031.57	40.506
1031.73	34.583
1031.89	50.530
1032.05	55.431
1032.21	29.796
1032.37	41.007
1032.53	54.682
1032.69	39.056
1032.86	33.173
1033.02	31.561
1033.18	41.538
1033.34	32.258
1033.50	40.933
1033.66	53.962
1033.82	48.718
1033.98	33.621
1034.14	44.700
1034.30	52.290
1034.46	43.609
1034.62	49.412
1034.78	44.118
1034.94	32.130
1035.10	47.573
1035.26	29.897
1035.42	49.338
1035.58	33.935
1035.74	50.622
1035.90	54.634
1036.06	29.588
1036.22	30.534
1036.38	43.612
1036.54	40.984
1036.70	31.250
1036.86	46.907
1037.02	41.392
1037.18	45.714
1037.34	44.444
1037.50	51.942
1037.66	22.632
1037.82	53.472
1037.98	44.444
1038.14	32.597
1038.30	42.692
1038.46	52.518
1038.62	53.052
1038.78	51.442
1038.94	70.443
1039.10	41.627
1039.26	71.552
1039.42	44.495
1039.58	72.189
1039.74	38.494
1039.90	48.500
1040.06	58.049
>>>>>End Processed Spectral Data<<<<<
