SpectraSuite Data File
++++++++++++++++++++++++++++++++++++
Date: Wed Jan 25 18:22:13 EET 2017
User: TheoProf
Dark Spectrum Present: Yes
Reference Spectrum Present: Yes
Number of Sampled Component Spectra: 1
Spectrometers: USB4C02475
Integration Time (usec): 64136 (USB4C02475)
Spectra Averaged: 1 (USB4C02475)
Boxcar Smoothing: 0 (USB4C02475)
Correct for Electrical Dark: No (USB4C02475)
Strobe/Lamp Enabled: No (USB4C02475)
Correct for Detector Non-linearity: No (USB4C02475)
Correct for Stray Light: No (USB4C02475)
Number of Pixels in Processed Spectrum: 3648
>>>>>Begin Processed Spectral Data<<<<<
344.91	125.000
345.13	125.000
345.35	125.000
345.57	14.286
345.79	-175.000
346.00	121.053
346.22	525.000
346.44	-6.897
346.66	-480.000
346.87	248.276
347.09	-160.000
347.31	56.522
347.53	54.902
347.74	81.579
347.96	71.429
348.18	300.000
348.40	400.000
348.61	61.538
348.83	109.091
349.05	29.508
349.27	-25.000
349.48	29.412
349.70	129.412
349.92	190.323
350.14	49.180
350.35	114.815
350.57	72.917
350.79	58.824
351.01	30.769
351.22	-450.000
351.44	43.590
351.66	-220.000
351.87	133.333
352.09	437.500
352.31	0.000
352.53	53.333
352.74	-20.690
352.96	152.000
353.18	56.098
353.40	2300.000
353.61	50.000
353.83	209.091
354.05	290.000
354.26	90.909
354.48	38.095
354.70	147.368
354.92	-11.538
355.13	17.241
355.35	143.396
355.57	-50.980
355.78	-83.871
356.00	95.833
356.22	86.301
356.44	35.938
356.65	82.692
356.87	57.692
357.09	64.000
357.30	-2.041
357.52	483.333
357.74	3.636
357.95	-58.333
358.17	102.273
358.39	9.302
358.60	90.625
358.82	30.769
359.04	160.000
359.26	-23.529
359.47	19.444
359.69	31.683
359.91	-80.000
360.12	-250.000
360.34	56.757
360.56	66.667
360.77	69.231
360.99	39.655
361.21	25.000
361.42	21.277
361.64	0.000
361.86	0.000
362.07	-7.317
362.29	31.818
362.51	108.333
362.72	292.308
362.94	90.769
363.16	152.273
363.37	37.500
363.59	12.000
363.81	-50.000
364.02	93.878
364.24	-169.231
364.46	71.154
364.67	525.000
364.89	-48.485
365.11	1.852
365.32	125.000
365.54	-105.263
365.76	44.828
365.97	-15.152
366.19	163.636
366.41	92.857
366.62	22.857
366.84	157.143
367.05	80.000
367.27	36.364
367.49	129.032
367.70	31.429
367.92	57.895
368.14	0.000
368.35	67.647
368.57	10.127
368.79	62.264
369.00	93.878
369.22	340.000
369.43	93.750
369.65	77.500
369.87	45.714
370.08	97.222
370.30	-280.000
370.51	680.000
370.73	27.273
370.95	69.231
371.16	11.111
371.38	425.000
371.60	500.000
371.81	23.684
372.03	65.217
372.24	-275.000
372.46	103.448
372.68	66.667
372.89	14.035
373.11	-33.898
373.32	29.630
373.54	-13.158
373.76	44.898
373.97	0.000
374.19	-61.538
374.40	48.276
374.62	-15.625
374.84	40.000
375.05	100.000
375.27	-14.000
375.48	-64.706
375.70	-6.897
375.92	98.077
376.13	66.667
376.35	23.810
376.56	-28.571
376.78	68.182
376.99	27.692
377.21	-13.953
377.43	3.846
377.64	62.338
377.86	114.286
378.07	-100.000
378.29	-70.455
378.51	25.926
378.72	78.082
378.94	51.429
379.15	80.702
379.37	-44.000
379.58	31.250
379.80	68.750
380.01	-71.053
380.23	-4.444
380.45	-97.368
380.66	10.145
380.88	81.818
381.09	-39.062
381.31	-34.375
381.52	104.348
381.74	78.947
381.95	-350.000
382.17	6.818
382.39	-15.517
382.60	16.667
382.82	4.000
383.03	-118.750
383.25	40.000
383.46	-136.842
383.68	-25.000
383.89	-19.048
384.11	55.932
384.32	41.860
384.54	14.141
384.76	-15.217
384.97	-33.333
385.19	31.250
385.40	-40.323
385.62	13.793
385.83	19.048
386.05	38.333
386.26	-7.407
386.48	26.230
386.69	12.346
386.91	0.000
387.12	-32.308
387.34	-26.923
387.55	11.111
387.77	49.315
387.98	9.804
388.20	-47.368
388.41	-28.571
388.63	66.000
388.84	80.882
389.06	60.606
389.27	41.584
389.49	20.000
389.70	60.784
389.92	39.286
390.13	44.898
390.35	1.471
390.56	41.176
390.78	27.273
390.99	38.028
391.21	54.412
391.42	14.815
391.64	-5.000
391.85	34.722
392.07	-150.000
392.28	6.557
392.50	31.111
392.71	30.645
392.93	1.724
393.14	32.075
393.36	-4.717
393.57	45.161
393.79	-3600.000
394.00	47.059
394.22	62.500
394.43	3.226
394.65	45.161
394.86	45.192
395.08	56.962
395.29	44.706
395.50	7.317
395.72	-32.258
395.93	15.789
396.15	10.484
396.36	14.943
396.58	41.739
396.79	40.541
397.01	75.000
397.22	19.403
397.44	23.529
397.65	31.667
397.87	-2.703
398.08	15.385
398.29	13.235
398.51	41.333
398.72	20.455
398.94	13.158
399.15	-8.911
399.37	22.388
399.58	25.532
399.80	16.667
400.01	73.810
400.22	-2.778
400.44	2.222
400.65	45.588
400.87	-18.103
401.08	12.121
401.30	-47.222
401.51	0.000
401.72	3.871
401.94	21.552
402.15	10.345
402.37	29.245
402.58	-26.389
402.80	10.959
403.01	-35.802
403.22	25.263
403.44	17.424
403.65	50.000
403.87	22.857
404.08	-1.923
404.30	6.923
404.51	-6.780
404.72	40.426
404.94	-9.160
405.15	-15.541
405.37	30.709
405.58	-47.143
405.79	-18.947
406.01	19.608
406.22	-10.400
406.44	17.730
406.65	12.500
406.86	35.762
407.08	2.778
407.29	12.500
407.51	23.718
407.72	-10.417
407.93	23.026
408.15	9.202
408.36	10.949
408.58	40.541
408.79	-4.930
409.00	14.194
409.22	0.546
409.43	26.241
409.64	-7.812
409.86	14.815
410.07	7.595
410.29	33.645
410.50	-32.203
410.71	-19.608
410.93	8.021
411.14	13.497
411.35	26.144
411.57	12.048
411.78	3.550
412.00	27.273
412.21	-2.055
412.42	0.000
412.64	0.000
412.85	14.620
413.06	7.339
413.28	10.000
413.49	0.000
413.70	5.650
413.92	10.345
414.13	-8.929
414.34	19.372
414.56	-30.061
414.77	3.529
414.98	-7.853
415.20	-0.578
415.41	-18.333
415.63	25.877
415.84	14.216
416.05	31.304
416.27	9.091
416.48	13.934
416.69	18.468
416.91	14.976
417.12	8.854
417.33	16.878
417.55	-14.535
417.76	-3.448
417.97	8.780
418.19	27.536
418.40	8.791
418.61	25.210
418.83	6.787
419.04	11.261
419.25	16.393
419.46	22.707
419.68	26.667
419.89	19.251
420.10	31.381
420.32	22.311
420.53	16.064
420.74	34.231
420.96	37.052
421.17	35.968
421.38	22.989
421.60	39.583
421.81	33.333
422.02	35.632
422.23	24.896
422.45	26.667
422.66	36.250
422.87	39.313
423.09	33.921
423.30	50.000
423.51	47.232
423.73	37.229
423.94	41.176
424.15	37.838
424.36	45.313
424.58	39.792
424.79	33.003
425.00	34.507
425.22	52.000
425.43	42.029
425.64	38.636
425.85	27.530
426.07	34.700
426.28	35.274
426.49	40.221
426.71	35.673
426.92	35.799
427.13	36.964
427.34	40.303
427.56	30.655
427.77	48.047
427.98	38.710
428.19	38.224
428.41	41.980
428.62	36.301
428.83	47.632
429.04	49.379
429.26	50.147
429.47	51.385
429.68	44.923
429.89	54.762
430.11	41.927
430.32	34.828
430.53	40.952
430.74	43.789
430.96	37.435
431.17	39.886
431.38	39.032
431.59	44.037
431.81	44.355
432.02	50.281
432.23	39.545
432.44	42.308
432.66	50.000
432.87	47.720
433.08	49.537
433.29	45.685
433.51	58.824
433.72	64.637
433.93	66.900
434.14	56.808
434.35	60.048
434.57	58.910
434.78	68.193
434.99	70.259
435.20	80.388
435.42	80.738
435.63	68.819
435.84	75.342
436.05	81.129
436.26	75.483
436.48	69.907
436.69	75.745
436.90	66.411
437.11	70.019
437.32	74.530
437.54	79.626
437.75	76.740
437.96	69.661
438.17	84.964
438.38	85.743
438.60	69.030
438.81	75.301
439.02	71.146
439.23	69.815
439.44	80.664
439.66	72.679
439.87	74.225
440.08	85.950
440.29	70.349
440.50	69.709
440.72	55.949
440.93	65.597
441.14	68.642
441.35	67.442
441.56	61.319
441.77	67.816
441.99	67.164
442.20	70.968
442.41	63.685
442.62	74.310
442.83	66.385
443.04	69.231
443.26	63.477
443.47	68.722
443.68	72.559
443.89	77.164
444.10	78.853
444.31	70.417
444.53	72.287
444.74	76.582
444.95	83.002
445.16	77.852
445.37	72.816
445.58	78.548
445.80	84.006
446.01	89.822
446.22	87.009
446.43	85.583
446.64	79.479
446.85	80.458
447.06	83.357
447.28	83.041
447.49	91.352
447.70	83.180
447.91	76.169
448.12	72.400
448.33	74.207
448.54	77.898
448.76	72.546
448.97	72.779
449.18	74.152
449.39	67.075
449.60	77.107
449.81	80.952
450.02	65.726
450.23	75.911
450.45	72.895
450.66	71.824
450.87	72.015
451.08	69.307
451.29	78.860
451.50	69.960
451.71	77.647
451.92	64.093
452.13	73.010
452.35	69.794
452.56	70.037
452.77	72.258
452.98	75.479
453.19	65.900
453.40	72.966
453.61	70.738
453.82	67.487
454.03	64.908
454.25	70.323
454.46	69.693
454.67	61.603
454.88	61.031
455.09	61.461
455.30	70.109
455.51	64.082
455.72	66.471
455.93	72.468
456.14	75.087
456.35	67.525
456.56	78.465
456.78	74.703
456.99	75.124
457.20	65.781
457.41	71.258
457.62	67.889
457.83	64.396
458.04	72.651
458.25	71.399
458.46	72.407
458.67	63.291
458.88	72.098
459.09	66.971
459.30	67.889
459.51	71.050
459.73	68.936
459.94	67.836
460.15	68.916
460.36	69.981
460.57	67.147
460.78	67.942
460.99	64.629
461.20	61.059
461.41	58.241
461.62	67.183
461.83	61.979
462.04	57.069
462.25	57.597
462.46	63.000
462.67	58.603
462.88	59.792
463.09	54.359
463.30	50.840
463.51	55.651
463.72	49.489
463.93	48.258
464.15	46.441
464.36	43.150
464.57	45.141
464.78	37.959
464.99	32.103
465.20	33.530
465.41	34.943
465.62	26.093
465.83	25.036
466.04	26.063
466.25	23.315
466.46	21.278
466.67	18.713
466.88	14.015
467.09	15.147
467.30	11.717
467.51	11.155
467.72	11.892
467.93	8.174
468.14	4.327
468.35	6.362
468.56	5.000
468.77	3.184
468.98	5.634
469.19	2.524
469.40	4.737
469.61	3.028
469.82	2.948
470.03	0.307
470.24	-0.752
470.45	2.752
470.66	3.844
470.87	4.791
471.08	-0.602
471.29	0.829
471.50	1.899
471.71	2.727
471.92	2.604
472.13	3.494
472.34	0.228
472.55	1.288
472.76	3.102
472.97	-1.411
473.18	0.109
473.39	1.679
473.60	0.100
473.81	-0.192
474.01	-0.296
474.22	2.441
474.43	0.197
474.64	1.041
474.85	1.798
475.06	1.123
475.27	0.047
475.48	1.343
475.69	2.570
475.90	2.237
476.11	3.466
476.32	2.362
476.53	2.427
476.74	1.033
476.95	1.241
477.16	1.324
477.37	1.420
477.58	2.023
477.79	1.372
478.00	1.009
478.21	2.078
478.41	2.764
478.62	0.945
478.83	2.883
479.04	0.284
479.25	1.660
479.46	0.039
479.67	1.963
479.88	1.610
480.09	0.850
480.30	0.747
480.51	0.996
480.72	0.360
480.93	1.169
481.14	0.305
481.34	1.672
481.55	1.591
481.76	-0.066
481.97	1.377
482.18	0.861
482.39	1.407
482.60	0.523
482.81	0.303
483.02	1.737
483.23	1.151
483.44	3.037
483.65	-0.097
483.85	2.124
484.06	1.570
484.27	0.306
484.48	1.782
484.69	1.205
484.90	-0.440
485.11	1.479
485.32	0.887
485.53	0.605
485.73	1.143
485.94	1.754
486.15	-0.685
486.36	0.688
486.57	0.552
486.78	1.244
486.99	1.271
487.20	0.208
487.41	-0.026
487.61	0.719
487.82	2.023
488.03	1.959
488.24	1.023
488.45	1.802
488.66	0.523
488.87	1.935
489.08	0.235
489.28	1.477
489.49	1.133
489.70	0.913
489.91	0.524
490.12	0.972
490.33	1.651
490.54	2.042
490.74	0.572
490.95	1.910
491.16	0.123
491.37	-0.351
491.58	1.389
491.79	1.236
492.00	1.102
492.20	0.995
492.41	1.103
492.62	0.577
492.83	2.041
493.04	1.539
493.25	1.197
493.45	0.286
493.66	1.232
493.87	1.281
494.08	-0.645
494.29	0.652
494.50	0.707
494.70	2.297
494.91	1.041
495.12	0.899
495.33	1.663
495.54	1.594
495.75	0.471
495.95	0.656
496.16	1.183
496.37	0.561
496.58	-0.044
496.79	0.773
496.99	1.054
497.20	0.833
497.41	1.670
497.62	1.777
497.83	0.679
498.04	-0.942
498.24	2.073
498.45	1.354
498.66	0.873
498.87	0.423
499.08	1.012
499.28	1.510
499.49	0.907
499.70	0.994
499.91	0.539
500.12	0.484
500.32	0.489
500.53	0.544
500.74	1.395
500.95	1.069
501.15	1.649
501.36	1.703
501.57	1.560
501.78	0.440
501.99	1.463
502.19	0.589
502.40	1.203
502.61	0.830
502.82	1.316
503.02	1.389
503.23	1.387
503.44	1.877
503.65	1.293
503.86	1.597
504.06	1.335
504.27	1.172
504.48	0.849
504.69	1.429
504.89	1.525
505.10	2.161
505.31	1.827
505.52	1.485
505.72	2.926
505.93	3.760
506.14	2.630
506.35	2.109
506.55	4.258
506.76	3.602
506.97	4.155
507.18	4.557
507.38	5.107
507.59	4.093
507.80	4.772
508.01	6.734
508.21	6.619
508.42	7.103
508.63	8.449
508.84	8.479
509.04	9.565
509.25	10.452
509.46	12.265
509.67	13.046
509.87	14.098
510.08	14.791
510.29	15.590
510.49	16.431
510.70	18.329
510.91	19.667
511.12	20.116
511.32	22.689
511.53	24.228
511.74	25.398
511.94	27.817
512.15	28.604
512.36	30.006
512.57	30.280
512.77	30.006
512.98	30.727
513.19	32.802
513.39	33.533
513.60	35.263
513.81	36.805
514.01	39.194
514.22	38.072
514.43	39.987
514.64	39.940
514.84	40.837
515.05	40.375
515.26	40.268
515.46	40.287
515.67	40.413
515.88	42.203
516.08	42.779
516.29	42.668
516.50	44.907
516.70	45.530
516.91	45.273
517.12	44.364
517.32	44.733
517.53	45.127
517.74	45.555
517.95	44.376
518.15	43.907
518.36	45.125
518.57	44.964
518.77	45.465
518.98	47.961
519.19	47.360
519.39	48.048
519.60	49.634
519.80	47.442
520.01	47.039
520.22	47.109
520.42	48.167
520.63	47.607
520.84	47.837
521.04	47.888
521.25	46.682
521.46	45.893
521.66	46.604
521.87	47.574
522.08	48.721
522.28	50.391
522.49	50.707
522.70	52.142
522.90	53.134
523.11	51.693
523.31	53.328
523.52	55.030
523.73	57.156
523.93	58.185
524.14	59.225
524.35	60.249
524.55	60.802
524.76	60.618
524.97	62.565
525.17	64.735
525.38	65.001
525.58	67.614
525.79	69.443
526.00	73.267
526.20	76.350
526.41	75.418
526.61	77.762
526.82	78.699
527.03	83.287
527.23	84.845
527.44	87.420
527.64	85.178
527.85	86.598
528.06	86.804
528.26	87.645
528.47	86.353
528.68	88.174
528.88	88.989
529.09	86.700
529.29	85.985
529.50	85.276
529.70	83.824
529.91	83.822
530.12	83.124
530.32	84.523
530.53	85.703
530.73	84.858
530.94	83.778
531.15	86.415
531.35	88.799
531.56	88.405
531.76	86.833
531.97	86.284
532.17	85.665
532.38	85.587
532.59	85.137
532.79	85.176
533.00	85.085
533.20	86.834
533.41	85.108
533.61	83.963
533.82	84.031
534.03	84.707
534.23	82.715
534.44	82.830
534.64	82.443
534.85	80.600
535.05	80.494
535.26	82.742
535.46	84.702
535.67	83.790
535.88	84.587
536.08	83.379
536.29	83.760
536.49	83.810
536.70	83.709
536.90	82.893
537.11	85.467
537.31	90.952
537.52	89.682
537.72	89.115
537.93	87.369
538.13	86.806
538.34	89.280
538.55	89.091
538.75	91.309
538.96	90.320
539.16	89.667
539.37	90.807
539.57	90.540
539.78	92.394
539.98	91.364
540.19	92.780
540.39	88.043
540.60	91.632
540.80	92.074
541.01	88.281
541.21	88.295
541.42	89.548
541.62	88.335
541.83	88.373
542.03	89.195
542.24	90.233
542.44	88.479
542.65	88.861
542.85	90.816
543.06	89.494
543.26	91.035
543.47	88.755
543.67	89.985
543.88	90.129
544.08	89.040
544.29	88.850
544.49	90.563
544.70	89.630
544.90	90.861
545.11	90.427
545.31	92.445
545.52	91.429
545.72	90.978
545.93	87.709
546.13	87.598
546.34	85.509
546.54	85.291
546.75	87.814
546.95	92.151
547.15	95.839
547.36	93.292
547.56	92.665
547.77	92.629
547.97	91.527
548.18	91.624
548.38	92.537
548.59	91.549
548.79	91.465
549.00	91.773
549.20	90.601
549.41	92.317
549.61	90.601
549.81	90.045
550.02	87.861
550.22	89.172
550.43	88.282
550.63	89.093
550.84	88.506
551.04	88.885
551.25	87.202
551.45	89.869
551.65	89.361
551.86	90.151
552.06	90.050
552.27	90.909
552.47	90.282
552.68	90.807
552.88	91.427
553.08	90.034
553.29	89.515
553.49	91.410
553.70	89.536
553.90	90.225
554.11	91.421
554.31	91.822
554.51	92.999
554.72	92.411
554.92	92.227
555.13	92.528
555.33	89.614
555.53	91.313
555.74	92.358
555.94	90.151
556.15	89.920
556.35	89.128
556.56	89.929
556.76	89.163
556.96	89.743
557.17	88.576
557.37	87.599
557.58	87.727
557.78	87.704
557.98	88.036
558.19	87.801
558.39	86.912
558.59	83.375
558.80	84.315
559.00	84.398
559.21	83.514
559.41	82.501
559.61	82.597
559.82	80.924
560.02	79.631
560.23	79.807
560.43	79.015
560.63	77.844
560.84	79.338
561.04	79.403
561.24	78.808
561.45	80.361
561.65	80.794
561.85	78.117
562.06	75.709
562.26	76.283
562.47	73.975
562.67	72.026
562.87	68.189
563.08	64.351
563.28	62.168
563.48	58.741
563.69	55.800
563.89	54.136
564.09	52.387
564.30	50.396
564.50	47.550
564.70	45.985
564.91	42.339
565.11	39.465
565.31	36.010
565.52	32.685
565.72	31.502
565.92	27.960
566.13	26.346
566.33	24.809
566.53	21.432
566.74	19.867
566.94	18.058
567.14	16.499
567.35	14.279
567.55	12.519
567.75	11.352
567.96	9.979
568.16	9.004
568.36	8.253
568.57	7.127
568.77	6.296
568.97	5.428
569.18	5.059
569.38	4.796
569.58	4.094
569.79	3.371
569.99	3.111
570.19	3.285
570.39	3.261
570.60	2.917
570.80	2.048
571.00	2.234
571.21	1.936
571.41	1.620
571.61	1.557
571.82	1.182
572.02	1.781
572.22	1.363
572.42	1.339
572.63	1.157
572.83	1.124
573.03	1.101
573.24	0.949
573.44	0.848
573.64	1.051
573.84	0.479
574.05	0.856
574.25	1.011
574.45	0.704
574.66	0.554
574.86	1.023
575.06	0.310
575.26	0.803
575.47	0.621
575.67	0.504
575.87	0.364
576.07	0.939
576.28	0.688
576.48	0.509
576.68	0.778
576.88	0.548
577.09	0.703
577.29	0.577
577.49	1.198
577.69	0.847
577.90	0.561
578.10	0.809
578.30	0.500
578.50	0.798
578.71	0.695
578.91	0.742
579.11	0.749
579.31	0.698
579.52	0.491
579.72	0.907
579.92	0.892
580.12	0.604
580.33	0.660
580.53	0.583
580.73	0.685
580.93	0.705
581.13	0.852
581.34	0.756
581.54	0.745
581.74	0.817
581.94	0.391
582.15	0.715
582.35	0.505
582.55	1.018
582.75	0.740
582.95	0.805
583.16	0.560
583.36	0.882
583.56	0.585
583.76	0.457
583.96	0.994
584.17	0.726
584.37	0.600
584.57	0.890
584.77	0.625
584.97	0.814
585.18	0.796
585.38	0.986
585.58	0.760
585.78	0.673
585.98	0.589
586.19	0.535
586.39	0.897
586.59	0.677
586.79	0.985
586.99	1.035
587.20	0.668
587.40	0.603
587.60	0.486
587.80	0.588
588.00	0.401
588.20	0.718
588.41	0.611
588.61	0.900
588.81	0.800
589.01	0.565
589.21	0.476
589.41	0.759
589.62	0.611
589.82	0.539
590.02	0.766
590.22	0.515
590.42	0.870
590.62	0.735
590.83	0.635
591.03	0.712
591.23	1.097
591.43	0.767
591.63	0.870
591.83	0.850
592.03	0.820
592.24	0.880
592.44	0.781
592.64	1.029
592.84	0.750
593.04	0.780
593.24	0.991
593.44	0.879
593.65	1.135
593.85	1.089
594.05	0.783
594.25	1.230
594.45	0.881
594.65	0.777
594.85	1.211
595.06	1.272
595.26	1.037
595.46	1.574
595.66	1.626
595.86	2.221
596.06	2.442
596.26	2.568
596.46	2.501
596.66	3.209
596.87	3.566
597.07	3.874
597.27	4.736
597.47	4.484
597.67	5.165
597.87	5.911
598.07	6.317
598.27	6.765
598.47	7.659
598.67	8.469
598.88	9.141
599.08	9.768
599.28	10.921
599.48	11.228
599.68	12.148
599.88	13.041
600.08	14.285
600.28	15.264
600.48	16.318
600.68	16.936
600.88	17.070
601.09	18.148
601.29	19.968
601.49	21.085
601.69	21.237
601.89	22.607
602.09	23.400
602.29	23.772
602.49	23.918
602.69	24.974
602.89	25.515
603.09	26.521
603.29	27.148
603.49	28.579
603.69	29.154
603.90	29.521
604.10	31.071
604.30	31.409
604.50	33.017
604.70	33.328
604.90	32.661
605.10	34.032
605.30	33.753
605.50	35.519
605.70	35.046
605.90	36.561
606.10	38.551
606.30	39.067
606.50	39.971
606.70	40.365
606.90	40.743
607.10	41.557
607.30	41.557
607.50	41.166
607.70	40.360
607.90	39.854
608.10	40.827
608.30	41.466
608.50	41.087
608.70	40.534
608.90	40.346
609.11	40.030
609.31	39.869
609.51	40.420
609.71	40.202
609.91	41.806
610.11	41.247
610.31	42.320
610.51	42.369
610.71	44.306
610.91	44.737
611.11	44.856
611.31	44.487
611.51	44.291
611.71	43.825
611.91	43.458
612.11	44.797
612.31	44.557
612.51	45.279
612.71	46.104
612.91	46.417
613.11	46.349
613.31	45.880
613.51	45.135
613.71	46.143
613.91	46.502
614.11	47.591
614.31	48.423
614.50	48.347
614.70	49.922
614.90	50.951
615.10	52.865
615.30	52.758
615.50	53.945
615.70	55.502
615.90	55.923
616.10	56.997
616.30	57.429
616.50	58.659
616.70	59.768
616.90	61.974
617.10	63.634
617.30	64.689
617.50	64.945
617.70	67.213
617.90	68.139
618.10	71.972
618.30	72.154
618.50	72.587
618.70	73.555
618.90	74.357
619.10	74.878
619.30	76.036
619.49	76.904
619.69	77.966
619.89	75.803
620.09	75.438
620.29	76.829
620.49	77.114
620.69	80.009
620.89	82.742
621.09	84.348
621.29	83.892
621.49	83.254
621.69	83.329
621.89	81.802
622.09	81.143
622.29	80.256
622.48	78.628
622.68	80.010
622.88	78.509
623.08	77.420
623.28	77.189
623.48	75.377
623.68	74.692
623.88	74.878
624.08	75.986
624.28	77.455
624.48	79.253
624.67	77.891
624.87	78.999
625.07	79.625
625.27	80.045
625.47	79.926
625.67	80.587
625.87	81.017
626.07	79.848
626.27	81.008
626.47	81.311
626.66	80.910
626.86	79.140
627.06	78.021
627.26	76.521
627.46	76.538
627.66	77.224
627.86	78.551
628.06	79.302
628.25	79.689
628.45	77.700
628.65	77.285
628.85	78.841
629.05	79.305
629.25	79.789
629.45	80.980
629.65	81.426
629.84	81.553
630.04	80.833
630.24	80.920
630.44	80.574
630.64	78.210
630.84	78.104
631.04	79.000
631.23	78.818
631.43	77.344
631.63	78.050
631.83	78.388
632.03	79.956
632.23	79.715
632.42	80.527
632.62	81.082
632.82	81.259
633.02	82.404
633.22	81.832
633.42	81.518
633.62	83.372
633.81	82.201
634.01	81.950
634.21	82.334
634.41	81.633
634.61	82.195
634.80	83.451
635.00	84.134
635.20	86.073
635.40	84.662
635.60	84.624
635.80	85.361
635.99	83.894
636.19	82.915
636.39	83.238
636.59	83.127
636.79	80.292
636.98	81.974
637.18	81.228
637.38	84.053
637.58	87.503
637.78	89.082
637.97	88.053
638.17	88.057
638.37	86.352
638.57	85.526
638.77	85.244
638.96	83.252
639.16	83.857
639.36	84.374
639.56	84.028
639.76	84.365
639.95	84.602
640.15	85.343
640.35	85.659
640.55	82.970
640.75	83.946
640.94	84.973
641.14	85.430
641.34	84.590
641.54	86.025
641.73	86.132
641.93	84.970
642.13	83.908
642.33	82.441
642.53	81.365
642.72	82.718
642.92	82.941
643.12	84.337
643.32	86.560
643.51	87.819
643.71	86.906
643.91	87.058
644.11	85.567
644.30	84.875
644.50	83.371
644.70	83.604
644.90	82.822
645.09	83.554
645.29	84.723
645.49	85.293
645.69	85.739
645.88	85.979
646.08	85.907
646.28	86.282
646.48	87.309
646.67	86.539
646.87	88.640
647.07	88.759
647.26	88.231
647.46	86.263
647.66	84.975
647.86	83.580
648.05	83.885
648.25	83.590
648.45	84.109
648.65	84.344
648.84	84.004
649.04	82.451
649.24	82.143
649.43	79.640
649.63	77.963
649.83	74.196
650.03	72.641
650.22	69.975
650.42	69.842
650.62	68.672
650.81	65.130
651.01	64.070
651.21	61.355
651.40	60.138
651.60	57.321
651.80	56.055
652.00	54.419
652.19	52.352
652.39	50.798
652.59	48.262
652.78	46.521
652.98	43.613
653.18	42.444
653.37	40.148
653.57	39.264
653.77	37.619
653.96	37.092
654.16	35.807
654.36	33.761
654.55	31.030
654.75	28.906
654.95	26.425
655.14	24.840
655.34	23.234
655.54	21.962
655.73	19.669
655.93	18.301
656.13	16.773
656.32	15.658
656.52	15.223
656.72	14.215
656.91	13.121
657.11	11.900
657.31	10.006
657.50	9.108
657.70	8.027
657.90	7.062
658.09	6.362
658.29	5.593
658.49	4.618
658.68	4.199
658.88	3.522
659.07	3.418
659.27	2.908
659.47	2.811
659.66	2.317
659.86	2.104
660.06	2.035
660.25	1.943
660.45	1.447
660.64	1.512
660.84	1.422
661.04	0.993
661.23	1.139
661.43	1.267
661.63	0.856
661.82	0.935
662.02	0.847
662.21	0.712
662.41	0.744
662.61	0.640
662.80	0.582
663.00	0.708
663.19	0.809
663.39	0.599
663.59	0.528
663.78	0.598
663.98	0.501
664.17	0.504
664.37	0.397
664.57	0.509
664.76	0.362
664.96	0.502
665.15	0.464
665.35	0.379
665.55	0.297
665.74	0.389
665.94	0.336
666.13	0.402
666.33	0.449
666.53	0.342
666.72	0.579
666.92	0.315
667.11	0.450
667.31	0.287
667.50	0.174
667.70	0.276
667.90	0.221
668.09	0.334
668.29	0.437
668.48	0.366
668.68	0.470
668.87	0.344
669.07	0.355
669.26	0.333
669.46	0.237
669.66	0.174
669.85	0.189
670.05	0.232
670.24	0.324
670.44	0.305
670.63	0.302
670.83	0.300
671.02	0.358
671.22	0.338
671.42	-0.055
671.61	0.330
671.81	0.200
672.00	0.279
672.20	0.160
672.39	0.345
672.59	0.381
672.78	0.120
672.98	0.181
673.17	0.016
673.37	0.186
673.56	0.232
673.76	0.137
673.95	0.101
674.15	0.062
674.34	0.104
674.54	0.090
674.73	0.163
674.93	0.052
675.13	0.144
675.32	0.171
675.52	0.069
675.71	0.190
675.91	0.000
676.10	0.049
676.30	0.060
676.49	0.020
676.69	0.245
676.88	0.233
677.08	-0.025
677.27	0.310
677.47	0.161
677.66	0.259
677.86	0.220
678.05	0.341
678.24	0.200
678.44	0.028
678.63	0.110
678.83	0.158
679.02	0.244
679.22	0.125
679.41	0.041
679.61	0.029
679.80	-0.013
680.00	0.082
680.19	0.082
680.39	-0.047
680.58	0.080
680.78	0.198
680.97	0.127
681.17	-0.021
681.36	-0.029
681.56	0.042
681.75	0.211
681.94	-0.157
682.14	0.034
682.33	0.042
682.53	0.000
682.72	0.177
682.92	0.082
683.11	-0.142
683.31	-0.020
683.50	0.064
683.69	0.060
683.89	0.073
684.08	0.073
684.28	0.065
684.47	-0.016
684.67	-0.008
684.86	0.107
685.06	-0.037
685.25	0.037
685.44	-0.095
685.64	0.111
685.83	0.111
686.03	-0.053
686.22	0.137
686.42	-0.114
686.61	-0.061
686.80	0.025
687.00	0.066
687.19	0.079
687.39	0.075
687.58	0.107
687.77	0.199
687.97	0.000
688.16	0.056
688.36	0.049
688.55	0.025
688.74	0.104
688.94	-0.198
689.13	-0.191
689.33	0.055
689.52	-0.021
689.71	0.053
689.91	-0.080
690.10	0.060
690.30	-0.012
690.49	0.049
690.68	-0.138
690.88	-0.076
691.07	0.030
691.27	-0.043
691.46	-0.077
691.65	-0.074
691.85	-0.153
692.04	-0.093
692.23	0.062
692.43	-0.076
692.62	0.115
692.82	0.100
693.01	0.135
693.20	-0.041
693.40	-0.085
693.59	-0.048
693.78	-0.028
693.98	-0.107
694.17	-0.004
694.36	-0.195
694.56	-0.102
694.75	-0.085
694.94	-0.032
695.14	-0.041
695.33	0.012
695.53	-0.109
695.72	-0.165
695.91	-0.056
696.11	0.068
696.30	-0.047
696.49	0.068
696.69	0.136
696.88	0.021
697.07	0.144
697.27	-0.288
697.46	-0.074
697.65	0.028
697.85	0.068
698.04	0.112
698.23	-0.065
698.43	-0.113
698.62	0.049
698.81	-0.081
699.01	-0.020
699.20	-0.029
699.39	-0.038
699.58	-0.035
699.78	-0.054
699.97	0.040
700.16	-0.096
700.36	-0.043
700.55	0.067
700.74	0.004
700.94	0.033
701.13	-0.042
701.32	0.066
701.52	-0.045
701.71	-0.024
701.90	-0.143
702.09	-0.110
702.29	-0.037
702.48	0.091
702.67	0.104
702.87	-0.055
703.06	-0.165
703.25	-0.029
703.44	0.044
703.64	-0.123
703.83	-0.082
704.02	-0.025
704.22	-0.245
704.41	-0.017
704.60	0.070
704.79	-0.141
704.99	0.049
705.18	-0.009
705.37	0.000
705.56	0.034
705.76	0.038
705.95	-0.037
706.14	-0.129
706.33	-0.254
706.53	-0.059
706.72	-0.200
706.91	-0.029
707.11	0.149
707.30	-0.043
707.49	0.056
707.68	-0.135
707.88	-0.083
708.07	-0.117
708.26	-0.119
708.45	-0.034
708.64	-0.021
708.84	-0.092
709.03	-0.046
709.22	-0.096
709.41	-0.021
709.61	-0.110
709.80	-0.054
709.99	-0.115
710.18	0.069
710.38	-0.048
710.57	0.109
710.76	0.079
710.95	-0.009
711.14	0.025
711.34	-0.203
711.53	0.042
711.72	0.046
711.91	-0.212
712.11	-0.025
712.30	0.017
712.49	-0.060
712.68	0.052
712.87	-0.182
713.07	0.026
713.26	-0.141
713.45	-0.092
713.64	-0.111
713.83	0.013
714.03	0.017
714.22	-0.099
714.41	-0.108
714.60	-0.323
714.79	-0.276
714.99	0.119
715.18	0.004
715.37	0.035
715.56	0.058
715.75	-0.027
715.94	0.143
716.14	0.130
716.33	-0.040
716.52	-0.217
716.71	-0.096
716.90	0.009
717.10	0.000
717.29	0.058
717.48	-0.076
717.67	-0.049
717.86	0.155
718.05	-0.154
718.24	0.102
718.44	-0.018
718.63	-0.031
718.82	0.089
719.01	-0.106
719.20	-0.159
719.39	-0.068
719.59	-0.199
719.78	0.055
719.97	0.051
720.16	-0.140
720.35	-0.094
720.54	-0.019
720.73	-0.149
720.93	0.154
721.12	0.014
721.31	0.070
721.50	0.014
721.69	-0.156
721.88	-0.029
722.07	-0.005
722.27	0.014
722.46	-0.232
722.65	0.024
722.84	0.086
723.03	0.034
723.22	-0.142
723.41	0.149
723.60	0.068
723.79	-0.027
723.99	0.074
724.18	-0.042
724.37	0.038
724.56	0.024
724.75	-0.024
724.94	0.019
725.13	0.136
725.32	-0.233
725.51	-0.242
725.71	-0.160
725.90	-0.162
726.09	-0.019
726.28	-0.057
726.47	-0.158
726.66	0.019
726.85	0.059
727.04	0.169
727.23	0.235
727.42	0.164
727.61	-0.127
727.81	0.273
728.00	-0.019
728.19	-0.216
728.38	-0.142
728.57	0.119
728.76	-0.086
728.95	0.044
729.14	-0.025
729.33	0.065
729.52	0.090
729.71	0.025
729.90	-0.030
730.09	-0.117
730.28	-0.151
730.48	-0.015
730.67	0.161
730.86	0.082
731.05	-0.288
731.24	-0.005
731.43	-0.076
731.62	0.108
731.81	0.054
732.00	0.016
732.19	-0.021
732.38	-0.016
732.57	-0.069
732.76	0.069
732.95	0.130
733.14	-0.173
733.33	-0.130
733.52	0.263
733.71	0.215
733.90	-0.063
734.09	-0.010
734.28	-0.348
734.47	-0.026
734.66	0.005
734.85	0.005
735.04	0.027
735.23	0.181
735.42	0.100
735.61	0.265
735.81	-0.011
736.00	0.028
736.19	-0.378
736.38	-0.074
736.57	-0.068
736.76	-0.049
736.95	-0.131
737.14	-0.107
737.33	0.376
737.52	-0.103
737.71	-0.083
737.90	0.108
738.09	-0.138
738.28	-0.065
738.47	-0.226
738.66	-0.074
738.85	0.052
739.04	0.035
739.22	0.012
739.41	0.158
739.60	-0.110
739.79	-0.093
739.98	-0.155
740.17	0.102
740.36	0.107
740.55	0.105
740.74	-0.038
740.93	0.137
741.12	-0.173
741.31	-0.125
741.50	0.194
741.69	0.183
741.88	0.227
742.07	0.217
742.26	-0.011
742.45	-0.167
742.64	0.306
742.83	0.192
743.02	-0.071
743.21	-0.018
743.40	0.179
743.59	0.169
743.78	0.290
743.97	0.071
744.16	-0.232
744.34	0.080
744.53	0.322
744.72	0.260
744.91	0.184
745.10	0.019
745.29	0.199
745.48	0.180
745.67	-0.025
745.86	0.301
746.05	-0.216
746.24	0.164
746.43	0.076
746.62	-0.152
746.81	-0.258
747.00	0.065
747.18	-0.052
747.37	0.051
747.56	0.320
747.75	0.271
747.94	0.026
748.13	-0.073
748.32	0.123
748.51	0.179
748.70	0.146
748.89	-0.091
749.08	-0.021
749.26	0.116
749.45	-0.048
749.64	0.056
749.83	-0.390
750.02	0.000
750.21	0.036
750.40	0.219
750.59	0.030
750.78	-0.082
750.96	0.203
751.15	0.412
751.34	-0.045
751.53	0.083
751.72	0.098
751.91	-0.119
752.10	0.000
752.29	0.491
752.47	0.224
752.66	0.084
752.85	0.146
753.04	0.135
753.23	-0.201
753.42	-0.072
753.61	0.144
753.80	-0.032
753.98	0.287
754.17	0.169
754.36	0.496
754.55	-0.140
754.74	0.060
754.93	-0.078
755.12	0.035
755.30	0.331
755.49	-0.064
755.68	0.181
755.87	-0.178
756.06	0.242
756.25	-0.071
756.43	-0.079
756.62	0.052
756.81	-0.190
757.00	0.225
757.19	0.221
757.38	-0.009
757.56	0.223
757.75	0.000
757.94	0.087
758.13	0.097
758.32	0.525
758.51	0.040
758.69	0.168
758.88	0.149
759.07	0.141
759.26	0.071
759.45	0.331
759.63	0.788
759.82	0.274
760.01	0.479
760.20	-0.076
760.39	0.328
760.57	-0.155
760.76	0.534
760.95	0.452
761.14	-0.090
761.33	0.183
761.51	0.255
761.70	0.243
761.89	0.080
762.08	0.405
762.27	0.817
762.45	0.000
762.64	-0.095
762.83	0.492
763.02	0.470
763.21	-0.252
763.39	0.331
763.58	0.026
763.77	0.230
763.96	0.167
764.14	0.662
764.33	-0.234
764.52	0.013
764.71	0.334
764.89	0.173
765.08	0.456
765.27	-0.494
765.46	-0.080
765.65	0.199
765.83	-0.230
766.02	0.513
766.21	0.027
766.40	-0.081
766.58	-0.014
766.77	0.498
766.96	0.347
767.15	0.521
767.33	0.458
767.52	0.942
767.71	0.031
767.90	0.047
768.08	0.569
768.27	-0.240
768.46	0.532
768.64	-0.016
768.83	-0.165
769.02	0.457
769.21	-0.236
769.39	-0.119
769.58	0.137
769.77	0.017
769.96	1.143
770.14	0.734
770.33	0.574
770.52	0.897
770.70	0.273
770.89	-0.154
771.08	0.017
771.27	0.808
771.45	0.496
771.64	0.104
771.83	1.019
772.01	0.595
772.20	0.988
772.39	-0.105
772.57	0.054
772.76	0.073
772.95	0.803
773.14	0.686
773.32	0.185
773.51	0.398
773.70	0.585
773.88	0.116
774.07	-0.621
774.26	1.139
774.44	0.535
774.63	0.976
774.82	-0.293
775.00	0.943
775.19	1.084
775.38	0.734
775.56	-0.152
775.75	0.653
775.94	0.079
776.12	0.274
776.31	0.621
776.50	1.257
776.68	0.723
776.87	2.012
777.06	0.325
777.24	0.366
777.43	1.047
777.62	0.554
777.80	0.245
777.99	0.269
778.18	1.231
778.36	1.066
778.55	0.518
778.74	0.475
778.92	0.747
779.11	1.638
779.29	0.286
779.48	1.202
779.67	0.738
779.85	0.725
780.04	0.838
780.23	2.359
780.41	1.117
780.60	0.529
780.79	0.458
780.97	1.182
781.16	1.672
781.34	1.133
781.53	0.955
781.72	0.880
781.90	1.130
782.09	2.000
782.28	2.098
782.46	2.197
782.65	2.096
782.83	1.593
783.02	1.064
783.21	2.511
783.39	2.657
783.58	2.740
783.76	3.552
783.95	2.126
784.14	3.042
784.32	3.743
784.51	3.087
784.69	3.432
784.88	3.162
785.06	2.423
785.25	3.098
785.44	3.277
785.62	3.548
785.81	3.869
785.99	3.933
786.18	3.105
786.37	3.970
786.55	4.873
786.74	3.427
786.92	3.915
787.11	6.155
787.29	5.001
787.48	4.994
787.67	5.734
787.85	5.807
788.04	5.648
788.22	5.704
788.41	6.037
788.59	6.733
788.78	6.460
788.96	6.450
789.15	5.996
789.34	6.191
789.52	5.146
789.71	6.789
789.89	7.344
790.08	6.865
790.26	7.131
790.45	6.444
790.63	7.054
790.82	8.693
791.00	8.326
791.19	8.888
791.38	9.561
791.56	9.692
791.75	9.947
791.93	10.800
792.12	11.658
792.30	11.892
792.49	11.704
792.67	12.666
792.86	12.316
793.04	13.957
793.23	13.368
793.41	13.192
793.60	15.629
793.78	15.013
793.97	15.569
794.15	16.322
794.34	16.984
794.52	17.579
794.71	18.995
794.89	19.049
795.08	18.678
795.26	20.562
795.45	19.748
795.63	20.915
795.82	21.992
796.00	21.786
796.19	22.992
796.37	23.953
796.56	24.659
796.74	26.381
796.93	27.428
797.11	26.901
797.30	28.588
797.48	28.373
797.67	28.251
797.85	27.937
798.04	28.251
798.22	27.470
798.41	29.316
798.59	30.506
798.77	29.674
798.96	31.533
799.14	31.616
799.33	32.018
799.51	32.880
799.70	33.070
799.88	32.450
800.07	32.866
800.25	32.609
800.44	32.253
800.62	34.248
800.80	32.899
800.99	31.830
801.17	31.101
801.36	33.877
801.54	32.617
801.73	33.907
801.91	33.946
802.10	33.686
802.28	34.536
802.46	33.233
802.65	32.404
802.83	30.589
803.02	28.904
803.20	28.480
803.39	27.456
803.57	27.465
803.75	27.475
803.94	27.779
804.12	27.716
804.31	25.968
804.49	25.116
804.67	25.184
804.86	24.603
805.04	22.755
805.23	23.092
805.41	22.932
805.59	22.707
805.78	21.358
805.96	20.913
806.15	20.870
806.33	20.654
806.51	20.144
806.70	20.691
806.88	19.016
807.07	18.168
807.25	18.916
807.43	17.481
807.62	18.392
807.80	15.924
807.99	15.059
808.17	15.561
808.35	14.261
808.54	14.581
808.72	13.199
808.90	13.157
809.09	12.949
809.27	11.941
809.46	12.484
809.64	11.653
809.82	11.295
810.01	11.286
810.19	12.224
810.37	11.267
810.56	11.643
810.74	12.361
810.92	12.997
811.11	11.744
811.29	12.708
811.48	12.550
811.66	13.291
811.84	13.743
812.03	13.970
812.21	13.113
812.39	13.645
812.58	14.023
812.76	15.014
812.94	13.716
813.13	14.499
813.31	15.457
813.49	14.295
813.68	15.043
813.86	15.587
814.04	14.232
814.23	15.576
814.41	15.410
814.59	16.015
814.78	16.356
814.96	17.460
815.14	17.291
815.33	16.844
815.51	16.561
815.69	17.815
815.87	17.554
816.06	15.880
816.24	16.694
816.42	17.528
816.61	17.421
816.79	17.046
816.97	17.259
817.16	16.325
817.34	17.334
817.52	16.996
817.70	16.470
817.89	15.520
818.07	16.881
818.25	16.642
818.44	13.616
818.62	14.487
818.80	14.136
818.98	13.976
819.17	14.063
819.35	13.199
819.53	12.862
819.72	13.252
819.90	14.305
820.08	12.546
820.26	13.607
820.45	12.905
820.63	11.575
820.81	12.994
820.99	12.570
821.18	12.677
821.36	12.444
821.54	11.319
821.73	10.941
821.91	11.473
822.09	10.819
822.27	10.816
822.46	12.179
822.64	12.087
822.82	10.678
823.00	11.662
823.19	11.379
823.37	11.085
823.55	12.705
823.73	12.659
823.91	13.127
824.10	12.779
824.28	13.010
824.46	15.021
824.64	14.789
824.83	15.181
825.01	15.333
825.19	16.242
825.37	17.731
825.56	17.039
825.74	19.371
825.92	18.225
826.10	17.950
826.28	20.785
826.47	22.796
826.65	22.184
826.83	23.034
827.01	25.311
827.19	26.232
827.38	26.749
827.56	26.824
827.74	29.601
827.92	28.798
828.10	31.003
828.29	29.983
828.47	32.865
828.65	31.919
828.83	33.622
829.01	33.991
829.20	36.780
829.38	37.646
829.56	37.367
829.74	38.125
829.92	38.790
830.10	39.984
830.29	39.354
830.47	38.681
830.65	40.985
830.83	42.066
831.01	41.811
831.20	43.802
831.38	42.875
831.56	41.455
831.74	43.332
831.92	44.582
832.10	45.028
832.29	46.081
832.47	44.286
832.65	45.938
832.83	44.772
833.01	43.024
833.19	44.666
833.37	42.387
833.56	44.077
833.74	44.911
833.92	45.846
834.10	43.720
834.28	42.139
834.46	40.690
834.64	40.652
834.83	39.407
835.01	39.469
835.19	41.503
835.37	40.438
835.55	39.456
835.73	40.066
835.91	37.753
836.09	39.392
836.28	39.270
836.46	36.841
836.64	36.082
836.82	37.493
837.00	34.411
837.18	35.930
837.36	37.803
837.54	36.374
837.72	38.197
837.91	34.834
838.09	36.381
838.27	33.657
838.45	35.963
838.63	37.098
838.81	36.776
838.99	37.785
839.17	39.511
839.35	37.607
839.53	40.318
839.72	38.764
839.90	37.581
840.08	38.855
840.26	37.724
840.44	35.034
840.62	35.853
840.80	36.442
840.98	37.158
841.16	38.787
841.34	37.557
841.52	38.791
841.70	41.988
841.89	40.754
842.07	41.358
842.25	40.453
842.43	39.085
842.61	39.429
842.79	44.276
842.97	41.687
843.15	42.112
843.33	44.662
843.51	41.721
843.69	43.105
843.87	44.079
844.05	41.853
844.23	45.009
844.41	45.990
844.59	48.801
844.77	46.795
844.95	46.596
845.13	47.908
845.31	47.190
845.50	49.300
845.68	48.131
845.86	46.196
846.04	48.203
846.22	45.464
846.40	46.279
846.58	44.351
846.76	46.082
846.94	45.249
847.12	46.687
847.30	43.123
847.48	45.136
847.66	44.432
847.84	44.112
848.02	41.314
848.20	45.981
848.38	44.465
848.56	44.418
848.74	45.333
848.92	45.306
849.10	44.192
849.28	46.292
849.46	45.536
849.64	46.011
849.82	46.648
850.00	45.481
850.18	45.940
850.36	45.215
850.54	40.798
850.72	42.599
850.90	40.464
851.08	41.957
851.26	41.206
851.44	40.656
851.62	43.893
851.80	43.779
851.98	43.304
852.16	45.921
852.34	42.808
852.52	43.057
852.70	41.152
852.87	44.161
853.05	40.835
853.23	41.240
853.41	39.539
853.59	38.511
853.77	40.407
853.95	40.284
854.13	38.864
854.31	38.283
854.49	37.519
854.67	37.759
854.85	36.688
855.03	37.429
855.21	38.183
855.39	36.854
855.57	36.667
855.75	36.502
855.93	34.732
856.11	33.658
856.28	36.562
856.46	36.683
856.64	37.048
856.82	38.529
857.00	36.559
857.18	38.290
857.36	37.381
857.54	37.570
857.72	39.149
857.90	38.612
858.08	38.893
858.26	39.644
858.44	43.448
858.61	39.188
858.79	41.503
858.97	43.027
859.15	40.841
859.33	43.213
859.51	44.449
859.69	44.315
859.87	45.596
860.05	47.287
860.23	46.633
860.40	47.607
860.58	44.591
860.76	47.913
860.94	45.615
861.12	48.967
861.30	50.420
861.48	50.019
861.66	49.037
861.84	49.521
862.01	52.039
862.19	50.607
862.37	51.398
862.55	50.750
862.73	53.726
862.91	53.139
863.09	55.252
863.27	50.778
863.44	54.649
863.62	54.365
863.80	53.702
863.98	53.846
864.16	53.195
864.34	51.355
864.52	51.863
864.69	49.819
864.87	51.981
865.05	51.705
865.23	52.088
865.41	52.268
865.59	54.526
865.76	51.987
865.94	53.132
866.12	54.321
866.30	50.479
866.48	50.992
866.66	49.508
866.83	50.437
867.01	49.963
867.19	49.082
867.37	49.623
867.55	46.284
867.73	46.893
867.90	47.097
868.08	47.797
868.26	47.201
868.44	51.664
868.62	48.162
868.79	52.943
868.97	52.409
869.15	54.853
869.33	55.602
869.51	56.646
869.69	57.544
869.86	54.219
870.04	57.551
870.22	55.915
870.40	61.784
870.57	59.842
870.75	61.355
870.93	60.656
871.11	60.078
871.29	61.530
871.46	59.228
871.64	63.793
871.82	60.215
872.00	63.897
872.18	66.703
872.35	65.489
872.53	66.462
872.71	65.347
872.89	66.844
873.06	66.775
873.24	65.678
873.42	66.292
873.60	68.287
873.77	67.364
873.95	67.333
874.13	68.425
874.31	65.424
874.49	67.105
874.66	65.829
874.84	68.071
875.02	66.165
875.20	66.799
875.37	64.667
875.55	65.725
875.73	64.345
875.91	68.333
876.08	69.901
876.26	68.656
876.44	72.333
876.61	69.397
876.79	68.583
876.97	66.991
877.15	70.146
877.32	68.568
877.50	66.516
877.68	62.645
877.86	63.542
878.03	64.346
878.21	63.480
878.39	62.068
878.56	66.256
878.74	63.903
878.92	63.913
879.10	65.157
879.27	62.845
879.45	63.006
879.63	61.660
879.80	61.716
879.98	63.413
880.16	65.431
880.34	66.689
880.51	65.933
880.69	63.436
880.87	63.706
881.04	61.376
881.22	61.568
881.40	61.923
881.57	60.625
881.75	64.163
881.93	62.531
882.10	59.487
882.28	60.791
882.46	59.339
882.63	59.263
882.81	59.626
882.99	58.881
883.16	57.448
883.34	54.811
883.52	55.489
883.69	56.466
883.87	51.892
884.05	53.236
884.22	54.144
884.40	53.634
884.58	53.267
884.75	51.800
884.93	53.894
885.11	54.224
885.28	51.725
885.46	53.224
885.64	50.434
885.81	48.531
885.99	51.275
886.17	47.999
886.34	50.673
886.52	49.429
886.70	50.582
886.87	49.573
887.05	49.514
887.22	48.950
887.40	45.403
887.58	45.012
887.75	48.263
887.93	44.613
888.11	49.373
888.28	46.704
888.46	47.490
888.63	45.950
888.81	47.505
888.99	46.340
889.16	46.602
889.34	50.205
889.51	47.606
889.69	49.827
889.87	47.642
890.04	48.027
890.22	51.551
890.39	52.432
890.57	51.215
890.75	51.396
890.92	52.534
891.10	52.573
891.27	56.408
891.45	51.507
891.63	52.981
891.80	54.789
891.98	54.030
892.15	51.731
892.33	54.653
892.51	53.153
892.68	52.529
892.86	52.040
893.03	54.685
893.21	54.724
893.38	53.864
893.56	52.725
893.74	56.278
893.91	57.976
894.09	56.342
894.26	54.591
894.44	54.435
894.61	55.522
894.79	55.563
894.96	54.588
895.14	53.776
895.32	54.876
895.49	54.634
895.67	50.760
895.84	54.232
896.02	52.947
896.19	52.771
896.37	47.702
896.54	49.431
896.72	51.934
896.89	49.578
897.07	48.155
897.25	46.902
897.42	45.794
897.60	47.716
897.77	49.412
897.95	46.708
898.12	49.256
898.30	46.362
898.47	50.018
898.65	46.992
898.82	45.088
899.00	47.569
899.17	45.833
899.35	45.661
899.52	46.669
899.70	46.485
899.87	47.179
900.05	46.282
900.22	47.350
900.40	46.204
900.57	47.772
900.75	47.344
900.92	47.534
901.10	47.520
901.27	43.299
901.45	47.887
901.62	44.785
901.80	43.625
901.97	43.984
902.15	43.942
902.32	42.125
902.50	46.498
902.67	46.369
902.85	46.808
903.02	46.285
903.20	46.160
903.37	47.360
903.54	45.529
903.72	47.694
903.89	47.246
904.07	46.656
904.24	47.211
904.42	47.683
904.59	48.396
904.77	47.650
904.94	45.641
905.12	46.026
905.29	45.767
905.47	47.174
905.64	46.452
905.81	43.894
905.99	46.015
906.16	47.625
906.34	46.936
906.51	48.117
906.69	50.856
906.86	50.060
907.03	51.674
907.21	53.204
907.38	51.110
907.56	46.117
907.73	50.361
907.91	56.013
908.08	51.147
908.25	49.851
908.43	52.801
908.60	53.270
908.78	56.389
908.95	54.553
909.13	59.606
909.30	57.336
909.47	55.808
909.65	57.385
909.82	53.948
910.00	58.658
910.17	54.792
910.34	59.044
910.52	57.689
910.69	56.805
910.87	56.543
911.04	60.667
911.21	58.312
911.39	57.602
911.56	58.739
911.73	57.385
911.91	60.607
912.08	58.081
912.26	59.649
912.43	60.856
912.60	59.164
912.78	64.343
912.95	63.714
913.13	60.243
913.30	62.593
913.47	64.848
913.65	64.955
913.82	62.849
913.99	60.076
914.17	60.334
914.34	59.181
914.51	60.951
914.69	61.367
914.86	56.356
915.03	59.643
915.21	55.539
915.38	55.916
915.56	60.683
915.73	60.369
915.90	61.085
916.08	58.657
916.25	59.693
916.42	57.484
916.60	58.768
916.77	58.130
916.94	59.574
917.12	56.253
917.29	57.784
917.46	61.049
917.64	58.721
917.81	60.768
917.98	60.339
918.16	60.792
918.33	64.058
918.50	61.526
918.67	62.158
918.85	65.666
919.02	62.513
919.19	61.680
919.37	65.205
919.54	63.765
919.71	62.981
919.89	63.919
920.06	63.227
920.23	61.032
920.41	59.387
920.58	65.060
920.75	66.418
920.92	62.725
921.10	65.575
921.27	60.508
921.44	67.512
921.62	66.529
921.79	65.215
921.96	66.277
922.13	66.424
922.31	63.436
922.48	63.124
922.65	57.185
922.82	60.070
923.00	59.466
923.17	58.553
923.34	57.986
923.52	57.637
923.69	57.206
923.86	56.410
924.03	58.224
924.21	57.766
924.38	56.827
924.55	51.163
924.72	53.435
924.90	57.775
925.07	58.588
925.24	57.850
925.41	55.847
925.59	54.173
925.76	52.417
925.93	53.529
926.10	49.307
926.28	49.355
926.45	49.963
926.62	47.486
926.79	43.218
926.96	44.944
927.14	44.616
927.31	44.737
927.48	44.188
927.65	39.440
927.83	43.381
928.00	41.142
928.17	37.918
928.34	40.649
928.51	42.268
928.69	41.743
928.86	42.426
929.03	38.869
929.20	42.772
929.37	38.998
929.55	39.051
929.72	42.136
929.89	37.049
930.06	38.296
930.23	36.909
930.41	36.659
930.58	40.529
930.75	39.101
930.92	38.723
931.09	38.531
931.27	38.764
931.44	37.586
931.61	37.405
931.78	37.285
931.95	36.804
932.12	39.850
932.30	35.783
932.47	39.252
932.64	40.580
932.81	37.303
932.98	39.231
933.16	42.720
933.33	44.326
933.50	43.704
933.67	42.871
933.84	42.134
934.01	44.503
934.18	36.168
934.36	47.148
934.53	43.974
934.70	48.733
934.87	43.602
935.04	50.047
935.21	47.777
935.38	47.339
935.56	45.508
935.73	43.383
935.90	43.261
936.07	37.959
936.24	48.408
936.41	39.224
936.58	40.737
936.76	42.068
936.93	47.514
937.10	48.107
937.27	42.715
937.44	44.745
937.61	46.504
937.78	45.955
937.95	48.772
938.13	47.635
938.30	47.033
938.47	38.753
938.64	49.663
938.81	43.483
938.98	43.928
939.15	39.444
939.32	50.749
939.49	39.892
939.66	41.649
939.84	46.010
940.01	44.352
940.18	43.881
940.35	38.639
940.52	37.185
940.69	37.947
940.86	46.406
941.03	34.923
941.20	33.040
941.37	38.462
941.54	41.359
941.71	36.092
941.89	41.231
942.06	36.385
942.23	40.173
942.40	37.701
942.57	36.454
942.74	39.792
942.91	35.070
943.08	36.929
943.25	35.813
943.42	33.567
943.59	40.629
943.76	34.548
943.93	36.289
944.10	39.815
944.27	38.070
944.44	29.328
944.61	34.113
944.79	39.155
944.96	36.107
945.13	37.158
945.30	46.206
945.47	31.096
945.64	36.759
945.81	36.704
945.98	40.000
946.15	40.080
946.32	43.533
946.49	44.171
946.66	41.321
946.83	36.676
947.00	36.523
947.17	41.211
947.34	40.466
947.51	38.132
947.68	33.123
947.85	39.489
948.02	38.571
948.19	39.746
948.36	39.255
948.53	45.329
948.70	39.964
948.87	42.365
949.04	41.395
949.21	38.119
949.38	40.816
949.55	33.800
949.72	38.550
949.89	40.156
950.06	39.683
950.23	43.939
950.40	31.012
950.57	46.486
950.74	36.572
950.91	38.419
951.08	41.115
951.25	36.122
951.42	43.667
951.59	44.846
951.76	39.798
951.93	42.986
952.10	44.022
952.27	36.623
952.44	49.592
952.61	38.065
952.77	50.474
952.94	44.309
953.11	38.667
953.28	47.547
953.45	50.203
953.62	48.276
953.79	52.407
953.96	44.531
954.13	52.299
954.30	55.847
954.47	43.186
954.64	53.077
954.81	46.076
954.98	47.330
955.15	43.600
955.32	47.627
955.49	47.162
955.65	40.800
955.82	47.658
955.99	41.711
956.16	47.929
956.33	51.093
956.50	47.860
956.67	43.260
956.84	33.521
957.01	46.640
957.18	46.123
957.35	43.952
957.52	42.972
957.68	44.643
957.85	43.830
958.02	46.115
958.19	48.537
958.36	52.607
958.53	54.948
958.70	53.105
958.87	46.980
959.04	52.564
959.21	42.291
959.37	60.000
959.54	47.126
959.71	55.924
959.88	53.579
960.05	44.656
960.22	55.583
960.39	54.589
960.56	41.447
960.72	44.906
960.89	37.580
961.06	47.708
961.23	46.259
961.40	50.362
961.57	49.306
961.74	51.976
961.90	48.889
962.07	48.523
962.24	47.909
962.41	45.916
962.58	49.359
962.75	51.674
962.92	59.913
963.08	52.360
963.25	51.193
963.42	59.712
963.59	54.449
963.76	51.242
963.93	37.156
964.10	50.000
964.26	50.418
964.43	58.661
964.60	51.765
964.77	57.870
964.94	63.443
965.10	45.455
965.27	44.622
965.44	47.608
965.61	70.652
965.78	55.682
965.95	49.165
966.11	73.041
966.28	54.017
966.45	49.171
966.62	56.971
966.79	52.381
966.95	65.837
967.12	64.414
967.29	62.132
967.46	64.480
967.63	52.553
967.79	55.531
967.96	63.053
968.13	54.971
968.30	57.283
968.47	51.250
968.63	68.870
968.80	55.711
968.97	73.121
969.14	64.752
969.31	62.179
969.47	61.832
969.64	59.519
969.81	59.831
969.98	63.725
970.14	76.573
970.31	61.087
970.48	58.259
970.65	69.647
970.81	69.792
970.98	62.955
971.15	58.700
971.32	66.222
971.48	59.780
971.65	66.038
971.82	65.914
971.99	69.841
972.15	77.197
972.32	57.746
972.49	59.915
972.66	53.348
972.82	62.754
972.99	47.529
973.16	45.513
973.33	59.479
973.49	48.866
973.66	53.175
973.83	54.592
974.00	67.342
974.16	57.273
974.33	59.218
974.50	60.870
974.67	56.790
974.83	66.344
975.00	53.828
975.17	52.874
975.33	73.364
975.50	58.602
975.67	68.433
975.84	58.761
976.00	59.765
976.17	54.824
976.34	66.332
976.50	62.983
976.67	66.055
976.84	69.388
977.00	71.868
977.17	69.859
977.34	67.943
977.50	61.662
977.67	70.548
977.84	62.464
978.01	61.257
978.17	67.254
978.34	80.893
978.51	65.375
978.67	72.936
978.84	63.218
979.01	62.500
979.17	68.000
979.34	69.948
979.51	64.000
979.67	68.204
979.84	69.359
980.01	59.909
980.17	60.920
980.34	73.438
980.51	70.208
980.67	68.052
980.84	66.598
981.01	65.152
981.17	55.882
981.34	53.684
981.50	60.817
981.67	66.749
981.84	59.169
982.00	48.711
982.17	66.158
982.34	65.888
982.50	65.244
982.67	75.194
982.84	61.682
983.00	74.151
983.17	70.413
983.33	59.778
983.50	63.453
983.67	53.744
983.83	70.379
984.00	64.183
984.17	60.944
984.33	64.250
984.50	65.116
984.66	70.361
984.83	66.667
985.00	69.333
985.16	68.861
985.33	58.636
985.49	63.907
985.66	69.932
985.83	74.385
985.99	69.565
986.16	67.515
986.32	65.663
986.49	68.326
986.66	71.754
986.82	63.755
986.99	61.305
987.15	73.364
987.32	79.953
987.49	68.778
987.65	71.096
987.82	65.206
987.98	76.761
988.15	84.987
988.31	62.648
988.48	74.882
988.65	72.751
988.81	74.497
988.98	58.580
989.14	61.137
989.31	65.217
989.47	78.606
989.64	60.586
989.80	65.728
989.97	61.039
990.14	61.915
990.30	65.625
990.47	67.476
990.63	67.053
990.80	67.010
990.96	53.456
991.13	53.571
991.29	64.608
991.46	71.259
991.62	59.070
991.79	58.664
991.95	69.752
992.12	67.574
992.29	53.455
992.45	59.404
992.62	53.587
992.78	61.006
992.95	65.550
993.11	63.982
993.28	78.240
993.44	54.486
993.61	56.017
993.77	72.775
993.94	64.531
994.10	62.869
994.27	64.792
994.43	64.768
994.60	60.000
994.76	58.891
994.93	71.754
995.09	70.889
995.26	57.524
995.42	43.796
995.59	64.116
995.75	70.833
995.92	56.000
996.08	48.941
996.25	65.185
996.41	56.618
996.58	57.078
996.74	53.715
996.91	61.097
997.07	66.585
997.23	61.520
997.40	57.837
997.56	57.477
997.73	64.000
997.89	56.376
998.06	58.811
998.22	55.283
998.39	64.706
998.55	53.349
998.72	53.037
998.88	58.250
999.05	66.042
999.21	60.143
999.37	76.330
999.54	68.434
999.70	61.269
999.87	64.070
1000.03	63.014
1000.20	62.740
1000.36	69.065
1000.52	60.879
1000.69	61.414
1000.85	60.259
1001.02	64.840
1001.18	54.876
1001.35	58.174
1001.51	61.693
1001.67	58.797
1001.84	68.143
1002.00	64.706
1002.17	66.514
1002.33	64.169
1002.50	66.817
1002.66	71.090
1002.82	65.075
1002.99	57.067
1003.15	61.404
1003.32	59.649
1003.48	46.890
1003.64	56.489
1003.81	62.079
1003.97	57.763
1004.14	59.005
1004.30	55.283
1004.46	58.486
1004.63	46.104
1004.79	61.842
1004.95	45.758
1005.12	46.429
1005.28	53.665
1005.45	57.834
1005.61	65.037
1005.77	47.783
1005.94	45.964
1006.10	50.378
1006.26	45.803
1006.43	46.209
1006.59	37.360
1006.76	39.314
1006.92	55.765
1007.08	60.048
1007.25	49.448
1007.41	45.803
1007.57	48.775
1007.74	55.416
1007.90	45.619
1008.06	51.302
1008.23	63.333
1008.39	47.699
1008.55	43.088
1008.72	45.387
1008.88	46.667
1009.04	51.404
1009.21	50.358
1009.37	52.895
1009.53	53.717
1009.70	53.226
1009.86	59.788
1010.02	42.369
1010.19	52.857
1010.35	47.198
1010.51	53.938
1010.68	44.697
1010.84	46.982
1011.00	46.154
1011.17	45.983
1011.33	45.721
1011.49	46.328
1011.66	38.462
1011.82	38.619
1011.98	51.360
1012.14	40.274
1012.31	46.313
1012.47	47.826
1012.63	58.621
1012.80	45.238
1012.96	50.000
1013.12	50.000
1013.29	50.693
1013.45	43.603
1013.61	39.018
1013.77	45.220
1013.94	34.987
1014.10	44.545
1014.26	46.287
1014.43	30.495
1014.59	49.185
1014.75	32.642
1014.91	43.936
1015.08	34.383
1015.24	45.349
1015.40	28.500
1015.56	30.263
1015.73	45.432
1015.89	41.398
1016.05	44.550
1016.21	46.787
1016.38	33.512
1016.54	37.427
1016.70	34.412
1016.86	43.678
1017.03	33.243
1017.19	41.397
1017.35	40.094
1017.51	39.178
1017.68	42.597
1017.84	38.118
1018.00	45.170
1018.16	38.611
1018.33	37.640
1018.49	44.444
1018.65	37.057
1018.81	44.343
1018.97	39.093
1019.14	43.869
1019.30	45.892
1019.46	51.546
1019.62	38.672
1019.79	52.665
1019.95	43.188
1020.11	54.829
1020.27	45.574
1020.43	43.860
1020.60	52.273
1020.76	53.933
1020.92	54.622
1021.08	46.711
1021.24	42.236
1021.41	55.333
1021.57	49.425
1021.73	54.426
1021.89	57.566
1022.05	36.237
1022.21	58.611
1022.38	42.286
1022.54	48.424
1022.70	40.667
1022.86	42.939
1023.02	51.014
1023.19	57.895
1023.35	45.659
1023.51	42.949
1023.67	39.826
1023.83	54.962
1023.99	50.000
1024.16	46.825
1024.32	52.104
1024.48	67.730
1024.64	51.987
1024.80	55.319
1024.96	61.728
1025.12	66.458
1025.29	50.883
1025.45	46.429
1025.61	53.226
1025.77	50.181
1025.93	62.112
1026.09	50.579
1026.26	49.662
1026.42	58.197
1026.58	46.367
1026.74	58.431
1026.90	55.589
1027.06	38.614
1027.22	49.664
1027.38	50.709
1027.55	60.680
1027.71	51.163
1027.87	67.458
1028.03	47.809
1028.19	45.763
1028.35	44.280
1028.51	53.571
1028.67	60.456
1028.83	43.290
1029.00	41.724
1029.16	56.562
1029.32	62.406
1029.48	53.906
1029.64	68.197
1029.80	61.382
1029.96	65.608
1030.12	51.282
1030.28	52.632
1030.44	57.937
1030.61	63.713
1030.77	67.623
1030.93	57.143
1031.09	39.608
1031.25	51.269
1031.41	49.799
1031.57	62.869
1031.73	45.000
1031.89	48.763
1032.05	42.697
1032.21	47.347
1032.37	41.367
1032.53	53.184
1032.69	56.652
1032.86	33.654
1033.02	38.870
1033.18	44.231
1033.34	49.462
1033.50	64.767
1033.66	55.094
1033.82	50.916
1033.98	47.845
1034.14	43.779
1034.30	56.489
1034.46	50.000
1034.62	32.941
1034.78	56.250
1034.94	35.740
1035.10	59.223
1035.26	40.206
1035.42	44.371
1035.58	32.130
1035.74	45.228
1035.90	38.537
1036.06	38.577
1036.22	29.389
1036.38	55.507
1036.54	30.738
1036.70	54.167
1036.86	46.907
1037.02	51.648
1037.18	50.952
1037.34	38.889
1037.50	56.311
1037.66	52.105
1037.82	50.694
1037.98	40.143
1038.14	47.514
1038.30	31.154
1038.46	45.683
1038.62	33.803
1038.78	32.212
1038.94	60.099
1039.10	46.890
1039.26	49.569
1039.42	32.569
1039.58	36.686
1039.74	49.791
1039.90	34.000
1040.06	60.488
>>>>>End Processed Spectral Data<<<<<
