SpectraSuite Data File
++++++++++++++++++++++++++++++++++++
Date: Wed Jan 25 18:23:41 EET 2017
User: TheoProf
Dark Spectrum Present: Yes
Reference Spectrum Present: Yes
Number of Sampled Component Spectra: 1
Spectrometers: USB4C02475
Integration Time (usec): 64136 (USB4C02475)
Spectra Averaged: 1 (USB4C02475)
Boxcar Smoothing: 0 (USB4C02475)
Correct for Electrical Dark: No (USB4C02475)
Strobe/Lamp Enabled: No (USB4C02475)
Correct for Detector Non-linearity: No (USB4C02475)
Correct for Stray Light: No (USB4C02475)
Number of Pixels in Processed Spectrum: 3648
>>>>>Begin Processed Spectral Data<<<<<
344.91	100.000
345.13	100.000
345.35	100.000
345.57	257.143
345.79	225.000
346.00	52.632
346.22	-525.000
346.44	72.414
346.66	-100.000
346.87	237.931
347.09	340.000
347.31	26.087
347.53	17.647
347.74	26.316
347.96	217.857
348.18	16.667
348.40	242.105
348.61	-169.231
348.83	121.212
349.05	6.557
349.27	-70.833
349.48	-158.824
349.70	29.412
349.92	38.710
350.14	67.213
350.35	251.852
350.57	81.250
350.79	173.529
351.01	67.692
351.22	40.000
351.44	78.205
351.66	-80.000
351.87	216.667
352.09	175.000
352.31	25.714
352.53	43.333
352.74	-48.276
352.96	64.000
353.18	-4.878
353.40	-750.000
353.61	-23.810
353.83	263.636
354.05	10.000
354.26	66.667
354.48	61.905
354.70	15.789
354.92	46.154
355.13	68.966
355.35	86.792
355.57	88.235
355.78	112.903
356.00	-6.250
356.22	69.863
356.44	37.500
356.65	11.538
356.87	180.769
357.09	34.000
357.30	15.306
357.52	-183.333
357.74	-36.364
357.95	108.333
358.17	45.455
358.39	27.907
358.60	62.500
358.82	-38.462
359.04	720.000
359.26	-31.373
359.47	52.778
359.69	64.356
359.91	105.000
360.12	-230.000
360.34	78.378
360.56	-8.333
360.77	89.744
360.99	68.966
361.21	28.571
361.42	-55.319
361.64	87.500
361.86	4.167
362.07	82.927
362.29	68.182
362.51	53.571
362.72	300.000
362.94	46.154
363.16	-6.818
363.37	-14.063
363.59	24.000
363.81	25.000
364.02	177.551
364.24	-53.846
364.46	19.231
364.67	400.000
364.89	-18.182
365.11	-22.222
365.32	64.286
365.54	26.316
365.76	29.885
365.97	-6.061
366.19	136.364
366.41	-78.571
366.62	62.857
366.84	228.571
367.05	9.091
367.27	148.485
367.49	177.419
367.70	91.429
367.92	57.895
368.14	59.524
368.35	-100.000
368.57	21.519
368.79	43.396
369.00	18.367
369.22	70.000
369.43	26.563
369.65	17.500
369.87	82.857
370.08	52.778
370.30	-280.000
370.51	-20.000
370.73	36.364
370.95	-30.769
371.16	20.370
371.38	387.500
371.60	433.333
371.81	34.211
372.03	100.000
372.24	125.000
372.46	20.690
372.68	45.833
372.89	56.140
373.11	-22.034
373.32	125.926
373.54	39.474
373.76	51.020
373.97	40.541
374.19	23.077
374.40	-29.310
374.62	-93.750
374.84	84.000
375.05	35.185
375.27	80.000
375.48	58.824
375.70	79.310
375.92	-15.385
376.13	-23.333
376.35	46.032
376.56	-171.429
376.78	115.909
376.99	-16.923
377.21	-83.721
377.43	153.846
377.64	9.091
377.86	135.714
378.07	-620.000
378.29	56.818
378.51	66.667
378.72	89.041
378.94	7.143
379.15	24.561
379.37	14.000
379.58	12.500
379.80	47.917
380.01	-31.579
380.23	2.222
380.45	47.368
380.66	15.942
380.88	118.182
381.09	51.562
381.31	40.625
381.52	-117.391
381.74	85.263
381.95	30.000
382.17	-36.364
382.39	98.276
382.60	57.143
382.82	44.000
383.03	75.000
383.25	50.000
383.46	-115.789
383.68	-9.091
383.89	38.095
384.11	50.847
384.32	-4.651
384.54	45.455
384.76	39.130
384.97	-17.647
385.19	-93.750
385.40	-56.452
385.62	81.034
385.83	-15.873
386.05	30.000
386.26	-25.926
386.48	27.869
386.69	17.284
386.91	0.000
387.12	16.923
387.34	-36.538
387.55	-27.778
387.77	-16.438
387.98	36.275
388.20	-25.000
388.41	-62.857
388.63	76.000
388.84	72.059
389.06	34.848
389.27	44.554
389.49	-23.077
389.70	123.529
389.92	-51.786
390.13	76.531
390.35	58.824
390.56	47.059
390.78	28.409
390.99	40.845
391.21	58.824
391.42	7.407
391.64	-12.500
391.85	44.444
392.07	-287.500
392.28	19.672
392.50	11.111
392.71	19.355
392.93	36.207
393.14	26.415
393.36	19.811
393.57	40.860
393.79	-2700.000
394.00	19.608
394.22	-20.833
394.43	34.409
394.65	-17.742
394.86	18.269
395.08	73.418
395.29	91.765
395.50	4.878
395.72	145.161
395.93	2.256
396.15	26.613
396.36	-10.345
396.58	-3.478
396.79	28.378
397.01	-23.438
397.22	19.403
397.44	5.882
397.65	27.500
397.87	-29.730
398.08	9.402
398.29	-4.412
398.51	44.000
398.72	25.758
398.94	35.088
399.15	-0.990
399.37	18.657
399.58	19.149
399.80	-5.882
400.01	47.619
400.22	11.111
400.44	30.000
400.65	-30.882
400.87	8.621
401.08	-2.273
401.30	1.389
401.51	67.742
401.72	20.000
401.94	18.103
402.15	14.655
402.37	-23.585
402.58	-25.000
402.80	-10.959
403.01	13.580
403.22	12.632
403.44	10.606
403.65	52.941
403.87	47.857
404.08	10.256
404.30	7.692
404.51	3.390
404.72	31.206
404.94	20.611
405.15	12.838
405.37	21.260
405.58	-44.286
405.79	-26.316
406.01	13.725
406.22	-8.000
406.44	24.113
406.65	3.750
406.86	29.139
407.08	24.074
407.29	5.263
407.51	17.308
407.72	25.000
407.93	34.868
408.15	6.748
408.36	41.606
408.58	29.189
408.79	22.535
409.00	17.419
409.22	15.301
409.43	32.624
409.64	1.562
409.86	4.321
410.07	-21.519
410.29	11.215
410.50	-15.254
410.71	9.804
410.93	3.743
411.14	-7.362
411.35	16.993
411.57	-4.217
411.78	11.243
412.00	7.692
412.21	10.274
412.42	10.778
412.64	31.061
412.85	22.807
413.06	17.431
413.28	2.667
413.49	27.536
413.70	31.073
413.92	40.690
414.13	37.500
414.34	57.068
414.56	24.540
414.77	41.176
414.98	20.942
415.20	35.260
415.41	21.111
415.63	27.632
415.84	39.216
416.05	55.217
416.27	20.909
416.48	34.016
416.69	51.802
416.91	22.705
417.12	34.896
417.33	34.177
417.55	29.070
417.76	42.529
417.97	39.512
418.19	52.899
418.40	50.000
418.61	38.655
418.83	42.534
419.04	43.243
419.25	49.180
419.46	49.345
419.68	61.429
419.89	39.037
420.10	43.096
420.32	29.084
420.53	35.743
420.74	33.846
420.96	33.466
421.17	36.759
421.38	25.670
421.60	47.500
421.81	39.167
422.02	40.230
422.23	30.290
422.45	36.667
422.66	62.917
422.87	36.641
423.09	25.991
423.30	46.296
423.51	42.804
423.73	63.636
423.94	39.100
424.15	45.946
424.36	48.750
424.58	39.792
424.79	39.934
425.00	36.268
425.22	41.000
425.43	52.899
425.64	58.442
425.85	39.676
426.07	37.855
426.28	44.863
426.49	43.542
426.71	35.380
426.92	47.929
427.13	43.894
427.34	46.970
427.56	44.643
427.77	45.312
427.98	48.790
428.19	54.826
428.41	45.392
428.62	52.397
428.83	46.518
429.04	49.689
429.26	50.442
429.47	66.154
429.68	48.000
429.89	53.274
430.11	53.125
430.32	57.784
430.53	43.571
430.74	57.764
430.96	64.136
431.17	62.393
431.38	60.000
431.59	59.021
431.81	56.452
432.02	61.798
432.23	58.864
432.44	68.974
432.66	72.067
432.87	65.957
433.08	61.111
433.29	76.904
433.51	71.078
433.72	74.941
433.93	56.643
434.14	58.216
434.35	70.702
434.57	64.780
434.78	76.627
434.99	61.853
435.20	61.553
435.42	66.393
435.63	68.819
435.84	70.719
436.05	74.956
436.26	65.830
436.48	64.673
436.69	61.064
436.90	63.148
437.11	59.032
437.32	64.301
437.54	63.617
437.75	73.360
437.96	65.469
438.17	64.678
438.38	82.329
438.60	68.284
438.81	64.659
439.02	68.972
439.23	67.222
439.44	69.141
439.66	66.964
439.87	62.791
440.08	87.603
440.29	72.093
440.50	76.505
440.72	59.003
440.93	70.945
441.14	82.600
441.35	80.039
441.56	71.123
441.77	65.846
441.99	68.657
442.20	65.591
442.41	68.873
442.62	74.655
442.83	65.878
443.04	69.394
443.26	66.826
443.47	65.113
443.68	65.993
443.89	60.958
444.10	63.441
444.31	69.328
444.53	70.952
444.74	72.785
444.95	75.949
445.16	73.154
445.37	62.945
445.58	65.000
445.80	74.960
446.01	79.806
446.22	81.026
446.43	70.245
446.64	56.968
446.85	70.076
447.06	61.451
447.28	63.743
447.49	72.799
447.70	64.526
447.91	58.069
448.12	56.400
448.33	51.448
448.54	54.560
448.76	60.313
448.97	56.559
449.18	55.897
449.39	57.887
449.60	53.652
449.81	63.393
450.02	58.815
450.23	58.073
450.45	57.500
450.66	59.245
450.87	62.901
451.08	63.366
451.29	63.004
451.50	56.390
451.71	59.216
451.92	60.784
452.13	66.169
452.35	58.355
452.56	62.297
452.77	66.710
452.98	68.904
453.19	63.729
453.40	63.911
453.61	65.772
453.82	63.990
454.03	60.491
454.25	61.290
454.46	66.222
454.67	59.330
454.88	58.969
455.09	52.022
455.30	54.800
455.51	62.144
455.72	58.471
455.93	56.883
456.14	51.339
456.35	45.353
456.56	50.248
456.78	40.024
456.99	40.547
457.20	37.874
457.41	36.551
457.62	27.948
457.83	28.132
458.04	26.514
458.25	26.218
458.46	25.982
458.67	20.156
458.88	22.364
459.09	18.440
459.30	12.444
459.51	11.665
459.73	12.872
459.94	11.014
460.15	10.429
460.36	12.162
460.57	6.751
460.78	5.282
460.99	6.376
461.20	4.868
461.41	4.014
461.62	3.737
461.83	7.205
462.04	2.399
462.25	1.855
462.46	4.182
462.67	2.726
462.88	5.893
463.09	4.715
463.30	3.277
463.51	4.228
463.72	2.470
463.93	0.425
464.15	0.434
464.36	3.858
464.57	2.892
464.78	6.021
464.99	4.596
465.20	1.994
465.41	5.208
465.62	2.581
465.83	3.004
466.04	0.551
466.25	0.077
466.46	4.586
466.67	5.621
466.88	-0.438
467.09	1.234
467.30	1.635
467.51	3.828
467.72	1.252
467.93	0.884
468.14	2.473
468.35	4.573
468.56	3.247
468.77	3.444
468.98	1.729
469.19	-0.063
469.40	0.844
469.61	1.893
469.82	2.027
470.03	-0.859
470.24	-0.125
470.45	0.860
470.66	2.410
470.87	3.382
471.08	-0.241
471.29	3.436
471.50	1.620
471.71	2.045
471.92	1.828
472.13	1.442
472.34	1.997
472.55	2.414
472.76	3.215
472.97	-0.814
473.18	2.062
473.39	1.272
473.60	2.309
473.81	2.839
474.01	1.136
474.22	3.351
474.43	2.565
474.64	-0.644
474.85	0.000
475.06	0.983
475.27	1.266
475.48	0.417
475.69	1.353
475.90	1.445
476.11	2.773
476.32	1.760
476.53	0.989
476.74	3.098
476.95	2.881
477.16	3.375
477.37	0.843
477.58	2.318
477.79	2.015
478.00	0.757
478.21	2.119
478.41	3.045
478.62	0.315
478.83	-0.280
479.04	2.271
479.25	2.253
479.46	1.655
479.67	2.905
479.88	2.958
480.09	0.464
480.30	1.084
480.51	1.180
480.72	2.158
480.93	1.203
481.14	0.068
481.34	0.721
481.55	0.068
481.76	1.491
481.97	1.142
482.18	1.125
482.39	1.247
482.60	1.601
482.81	-0.135
483.02	1.002
483.23	0.921
483.44	2.068
483.65	0.032
483.85	1.966
484.06	0.628
484.27	2.112
484.48	2.251
484.69	2.688
484.90	1.100
485.11	1.602
485.32	0.673
485.53	1.724
485.73	1.172
485.94	1.374
486.15	1.911
486.36	1.664
486.57	1.048
486.78	1.244
486.99	1.488
487.20	0.234
487.41	-0.207
487.61	1.156
487.82	2.496
488.03	3.170
488.24	2.099
488.45	1.033
488.66	0.026
488.87	2.139
489.08	1.904
489.28	1.554
489.49	1.686
489.70	2.246
489.91	-0.350
490.12	2.309
490.33	2.016
490.54	2.632
490.74	2.389
490.95	1.834
491.16	1.300
491.37	0.000
491.58	1.365
491.79	2.206
492.00	1.509
492.20	1.634
492.41	1.526
492.62	1.084
492.83	1.044
493.04	2.060
493.25	0.414
493.45	1.716
493.66	1.859
493.87	2.128
494.08	0.881
494.29	0.912
494.50	0.493
494.70	1.412
494.91	1.351
495.12	1.934
495.33	1.846
495.54	1.235
495.75	1.570
495.95	1.199
496.16	1.987
496.37	2.158
496.58	1.315
496.79	1.911
496.99	2.948
497.20	2.938
497.41	2.668
497.62	3.131
497.83	3.882
498.04	3.363
498.24	4.574
498.45	5.566
498.66	5.323
498.87	5.968
499.08	6.526
499.28	7.917
499.49	7.871
499.70	9.082
499.91	8.178
500.12	9.535
500.32	9.941
500.53	11.071
500.74	12.731
500.95	13.317
501.15	14.490
501.36	15.960
501.57	15.755
501.78	17.971
501.99	19.683
502.19	19.675
502.40	22.129
502.61	22.292
502.82	23.261
503.02	25.328
503.23	27.223
503.44	28.014
503.65	28.574
503.86	30.848
504.06	32.599
504.27	31.486
504.48	32.978
504.69	35.782
504.89	36.522
505.10	37.295
505.31	36.157
505.52	37.746
505.72	38.618
505.93	40.767
506.14	40.944
506.35	39.732
506.55	43.524
506.76	42.716
506.97	43.367
507.18	42.706
507.38	44.319
507.59	43.512
507.80	44.307
508.01	43.933
508.21	42.898
508.42	44.171
508.63	42.197
508.84	43.739
509.04	45.985
509.25	46.104
509.46	44.673
509.67	44.582
509.87	46.526
510.08	45.690
510.29	43.085
510.49	43.662
510.70	44.751
510.91	43.815
511.12	45.983
511.32	45.597
511.53	47.431
511.74	47.859
511.94	48.087
512.15	48.012
512.36	48.316
512.57	47.082
512.77	50.151
512.98	46.826
513.19	45.978
513.39	46.312
513.60	47.427
513.81	49.113
514.01	49.665
514.22	49.217
514.43	49.695
514.64	50.331
514.84	47.368
515.05	46.934
515.26	46.746
515.46	46.595
515.67	45.963
515.88	47.105
516.08	48.526
516.29	49.570
516.50	52.311
516.70	50.765
516.91	49.593
517.12	49.892
517.32	52.074
517.53	51.155
517.74	53.800
517.95	52.308
518.15	54.833
518.36	56.941
518.57	57.228
518.77	59.524
518.98	63.087
519.19	66.367
519.39	68.034
519.60	70.903
519.80	70.893
520.01	71.240
520.22	74.056
520.42	76.544
520.63	75.925
520.84	78.705
521.04	79.587
521.25	80.789
521.46	78.587
521.66	77.886
521.87	78.865
522.08	81.771
522.28	84.663
522.49	83.172
522.70	84.698
522.90	83.579
523.11	80.519
523.31	82.423
523.52	81.942
523.73	83.958
523.93	84.197
524.14	82.820
524.35	82.918
524.55	81.679
524.76	78.895
524.97	78.060
525.17	79.352
525.38	78.186
525.58	78.932
525.79	78.496
526.00	78.217
526.20	80.873
526.41	80.592
526.61	79.103
526.82	81.192
527.03	84.045
527.23	84.678
527.44	83.030
527.64	82.974
527.85	83.656
528.06	83.445
528.26	82.530
528.47	84.888
528.68	85.758
528.88	86.637
529.09	85.342
529.29	82.754
529.50	84.315
529.70	85.176
529.91	84.534
530.12	83.884
530.32	84.706
530.53	85.669
530.73	86.514
530.94	86.029
531.15	89.063
531.35	92.147
531.56	90.199
531.76	89.230
531.97	91.052
532.17	88.130
532.38	88.515
532.59	87.809
532.79	88.899
533.00	89.763
533.20	90.374
533.41	92.918
533.61	91.153
533.82	90.491
534.03	90.520
534.23	89.413
534.44	90.074
534.64	89.532
534.85	88.275
535.05	86.497
535.26	90.037
535.46	90.665
535.67	89.877
535.88	90.507
536.08	90.433
536.29	91.303
536.49	88.245
536.70	89.840
536.90	89.270
537.11	92.694
537.31	94.799
537.52	94.076
537.72	94.183
537.93	90.331
538.13	90.673
538.34	90.018
538.55	90.473
538.75	93.296
538.96	93.466
539.16	90.604
539.37	91.847
539.57	91.798
539.78	93.460
539.98	91.086
540.19	92.280
540.39	89.519
540.60	92.207
540.80	91.619
541.01	91.021
541.21	88.275
541.42	89.853
541.62	87.917
541.83	88.766
542.03	89.559
542.24	89.603
542.44	88.401
542.65	88.773
542.85	89.109
543.06	88.794
543.26	88.053
543.47	88.062
543.67	88.296
543.88	89.965
544.08	89.308
544.29	88.205
544.49	88.810
544.70	88.272
544.90	89.364
545.11	89.019
545.31	88.117
545.52	90.275
545.72	87.633
545.93	85.882
546.13	83.444
546.34	82.004
546.54	83.318
546.75	84.510
546.95	87.403
547.15	91.731
547.36	89.657
547.56	89.092
547.77	88.829
547.97	86.523
548.18	87.490
548.38	87.636
548.59	87.847
548.79	87.556
549.00	85.872
549.20	84.556
549.41	86.541
549.61	85.823
549.81	83.478
550.02	82.126
550.22	80.946
550.43	80.732
550.63	80.898
550.84	80.089
551.04	79.244
551.25	78.815
551.45	77.441
551.65	77.639
551.86	75.494
552.06	75.221
552.27	75.488
552.47	73.056
552.68	70.689
552.88	69.640
553.08	66.596
553.29	65.890
553.49	64.116
553.70	61.370
553.90	60.175
554.11	57.298
554.31	55.118
554.51	54.179
554.72	52.114
554.92	48.197
555.13	46.255
555.33	43.660
555.53	41.112
555.74	38.093
555.94	35.087
556.15	32.280
556.35	29.792
556.56	27.004
556.76	24.437
556.96	22.369
557.17	19.955
557.37	18.436
557.58	15.806
557.78	15.209
557.98	13.481
558.19	12.030
558.39	10.343
558.59	8.793
558.80	7.659
559.00	6.783
559.21	5.403
559.41	4.985
559.61	4.552
559.82	4.731
560.02	4.036
560.23	3.400
560.43	2.666
560.63	2.723
560.84	2.499
561.04	2.438
561.24	1.961
561.45	2.484
561.65	2.182
561.85	1.783
562.06	0.956
562.26	1.955
562.47	1.969
562.67	1.602
562.87	1.511
563.08	1.073
563.28	1.041
563.48	1.052
563.69	0.933
563.89	0.944
564.09	0.846
564.30	0.988
564.50	1.030
564.70	0.737
564.91	0.785
565.11	0.795
565.31	0.876
565.52	0.475
565.72	0.941
565.92	0.453
566.13	0.820
566.33	0.679
566.53	0.674
566.74	1.117
566.94	0.691
567.14	0.474
567.35	0.513
567.55	0.440
567.75	0.539
567.96	0.297
568.16	0.784
568.36	0.860
568.57	0.754
568.77	0.758
568.97	0.652
569.18	0.671
569.38	0.630
569.58	0.708
569.79	0.602
569.99	0.381
570.19	0.735
570.39	1.006
570.60	0.727
570.80	0.254
571.00	0.592
571.21	0.536
571.41	0.401
571.61	0.439
571.82	0.175
572.02	0.463
572.22	1.160
572.42	0.777
572.63	0.655
572.83	0.835
573.03	0.554
573.24	0.598
573.44	0.716
573.64	1.102
573.84	0.458
574.05	0.638
574.25	0.665
574.45	0.718
574.66	0.273
574.86	0.883
575.06	0.189
575.26	0.728
575.47	0.546
575.67	0.274
575.87	0.297
576.07	0.693
576.28	0.628
576.48	0.553
576.68	0.710
576.88	0.646
577.09	0.454
577.29	0.463
577.49	0.793
577.69	0.809
577.90	0.561
578.10	0.705
578.30	0.753
578.50	0.726
578.71	0.595
578.91	0.668
579.11	0.794
579.31	0.623
579.52	0.614
579.72	0.953
579.92	0.840
580.12	0.818
580.33	0.871
580.53	0.929
580.73	1.038
580.93	0.762
581.13	0.859
581.34	0.856
581.54	1.071
581.74	1.148
581.94	0.472
582.15	1.264
582.35	1.132
582.55	1.039
582.75	1.185
582.95	1.141
583.16	1.239
583.36	1.793
583.56	1.570
583.76	1.459
583.96	1.770
584.17	1.835
584.37	2.099
584.57	2.601
584.77	2.370
584.97	2.597
585.18	3.184
585.38	3.305
585.58	3.643
585.78	3.926
585.98	4.853
586.19	5.388
586.39	5.482
586.59	6.552
586.79	7.069
586.99	8.102
587.20	8.447
587.40	10.123
587.60	10.047
587.80	10.571
588.00	10.754
588.20	11.921
588.41	13.336
588.61	14.799
588.81	15.777
589.01	16.064
589.21	16.415
589.41	16.849
589.62	17.045
589.82	17.895
590.02	18.673
590.22	19.050
590.42	20.156
590.62	21.035
590.83	21.462
591.03	22.423
591.23	23.910
591.43	25.300
591.63	26.773
591.83	27.027
592.03	27.279
592.24	27.606
592.44	27.765
592.64	27.853
592.84	27.931
593.04	28.019
593.24	29.393
593.44	31.088
593.65	32.399
593.85	33.501
594.05	33.732
594.25	33.955
594.45	34.150
594.65	34.056
594.85	33.984
595.06	34.277
595.26	34.814
595.46	36.093
595.66	37.354
595.86	38.464
596.06	38.931
596.26	38.726
596.46	38.584
596.66	38.489
596.87	39.776
597.07	39.374
597.27	40.954
597.47	41.055
597.67	41.519
597.87	41.146
598.07	41.743
598.27	42.522
598.47	42.507
598.67	43.036
598.88	42.845
599.08	41.990
599.28	42.860
599.48	43.093
599.68	42.895
599.88	42.424
600.08	42.866
600.28	43.576
600.48	43.454
600.68	43.047
600.88	43.608
601.09	43.507
601.29	43.379
601.49	44.145
601.69	43.511
601.89	42.855
602.09	43.151
602.29	43.273
602.49	42.252
602.69	42.562
602.89	42.075
603.09	42.930
603.29	43.311
603.49	43.631
603.69	43.464
603.90	43.895
604.10	44.432
604.30	45.179
604.50	45.292
604.70	45.857
604.90	44.728
605.10	45.156
605.30	44.847
605.50	45.612
605.70	45.505
605.90	47.331
606.10	48.502
606.30	49.702
606.50	49.417
606.70	51.037
606.90	52.014
607.10	52.748
607.30	51.963
607.50	52.670
607.70	52.377
607.90	52.051
608.10	53.322
608.30	54.437
608.50	54.551
608.70	55.090
608.90	54.119
609.11	55.077
609.31	55.902
609.51	57.258
609.71	58.527
609.91	59.692
610.11	60.415
610.31	62.590
610.51	64.638
610.71	68.132
610.91	69.097
611.11	71.170
611.31	70.822
611.51	70.788
611.71	70.682
611.91	70.609
612.11	72.503
612.31	73.611
612.51	73.519
612.71	74.182
612.91	74.280
613.11	74.793
613.31	73.812
613.51	73.665
613.71	74.107
613.91	74.462
614.11	74.635
614.31	73.676
614.50	73.082
614.70	74.588
614.90	75.296
615.10	75.431
615.30	75.496
615.50	75.330
615.70	74.627
615.90	73.760
616.10	74.198
616.30	72.409
616.50	72.918
616.70	74.243
616.90	73.811
617.10	74.807
617.30	74.098
617.50	73.619
617.70	74.791
617.90	75.321
618.10	76.558
618.30	75.899
618.50	75.417
618.70	75.629
618.90	75.702
619.10	75.808
619.30	76.527
619.49	76.963
619.69	76.087
619.89	74.406
620.09	73.335
620.29	74.324
620.49	75.042
620.69	77.385
620.89	78.888
621.09	79.493
621.29	80.927
621.49	79.626
621.69	79.824
621.89	78.863
622.09	77.726
622.29	77.646
622.48	76.980
622.68	77.577
622.88	75.812
623.08	75.887
623.28	75.509
623.48	74.436
623.68	73.585
623.88	73.603
624.08	74.869
624.28	75.237
624.48	77.971
624.67	77.741
624.87	77.613
625.07	79.230
625.27	79.555
625.47	79.153
625.67	79.528
625.87	80.531
626.07	80.468
626.27	81.357
626.47	82.439
626.66	81.742
626.86	78.561
627.06	77.649
627.26	76.043
627.46	77.637
627.66	78.193
627.86	79.802
628.06	80.346
628.25	80.136
628.45	78.127
628.65	78.589
628.85	79.995
629.05	80.703
629.25	81.776
629.45	81.860
629.65	82.338
629.84	83.122
630.04	83.031
630.24	83.456
630.44	83.800
630.64	81.884
630.84	81.138
631.04	82.244
631.23	81.253
631.43	80.221
631.63	81.190
631.83	81.458
632.03	83.192
632.23	83.701
632.42	84.451
632.62	84.974
632.82	84.099
633.02	84.864
633.22	84.878
633.42	84.692
633.62	85.923
633.81	84.967
634.01	85.793
634.21	85.463
634.41	84.665
634.61	83.290
634.80	84.831
635.00	85.400
635.20	86.092
635.40	84.334
635.60	83.327
635.80	82.451
635.99	81.183
636.19	78.681
636.39	77.889
636.59	75.921
636.79	72.798
636.98	71.801
637.18	71.774
637.38	72.915
637.58	73.119
637.78	74.593
637.97	72.848
638.17	70.263
638.37	68.537
638.57	65.099
638.77	63.629
638.96	61.733
639.16	60.250
639.36	58.925
639.56	56.657
639.76	55.507
639.95	54.910
640.15	52.193
640.35	51.681
640.55	48.238
640.75	46.853
640.94	45.541
641.14	45.032
641.34	43.331
641.54	42.692
641.73	40.799
641.93	38.668
642.13	36.109
642.33	34.466
642.53	32.625
642.72	32.122
642.92	30.396
643.12	29.029
643.32	27.773
643.51	26.468
643.71	24.550
643.91	23.392
644.11	21.746
644.30	19.918
644.50	18.013
644.70	16.520
644.90	15.634
645.09	14.955
645.29	14.088
645.49	12.420
645.69	11.318
645.88	9.776
646.08	8.933
646.28	7.528
646.48	6.980
646.67	5.873
646.87	5.512
647.07	5.040
647.26	4.062
647.46	3.637
647.66	3.050
647.86	2.721
648.05	2.508
648.25	2.195
648.45	1.538
648.65	1.809
648.84	1.728
649.04	1.231
649.24	1.313
649.43	1.224
649.63	0.913
649.83	0.893
650.03	0.710
650.22	0.759
650.42	0.631
650.62	0.746
650.81	0.741
651.01	0.718
651.21	0.586
651.40	0.448
651.60	0.635
651.80	0.445
652.00	0.556
652.19	0.456
652.39	0.614
652.59	0.492
652.78	0.342
652.98	0.532
653.18	0.345
653.37	0.431
653.57	0.333
653.77	0.555
653.96	0.513
654.16	0.536
654.36	0.353
654.55	0.171
654.75	0.565
654.95	0.499
655.14	0.136
655.34	0.260
655.54	0.285
655.73	0.410
655.93	0.326
656.13	0.205
656.32	0.284
656.52	0.140
656.72	0.411
656.91	0.233
657.11	0.199
657.31	0.103
657.50	0.098
657.70	0.336
657.90	0.252
658.09	0.317
658.29	0.291
658.49	0.229
658.68	0.364
658.88	0.108
659.07	0.249
659.27	0.110
659.47	0.358
659.66	0.212
659.86	0.294
660.06	0.431
660.25	0.145
660.45	0.206
660.64	0.158
660.84	0.259
661.04	0.017
661.23	0.177
661.43	0.250
661.63	0.143
661.82	0.340
662.02	0.237
662.21	0.004
662.41	-0.030
662.61	-0.021
662.80	0.094
663.00	0.311
663.19	0.260
663.39	0.017
663.59	0.119
663.78	0.103
663.98	-0.048
664.17	0.080
664.37	0.179
664.57	0.026
664.76	0.026
664.96	0.141
665.15	0.355
665.35	0.175
665.55	0.147
665.74	0.068
665.94	0.216
666.13	0.181
666.33	0.081
666.53	0.090
666.72	0.341
666.92	0.101
667.11	0.353
667.31	0.025
667.50	0.145
667.70	0.038
667.90	0.065
668.09	0.178
668.29	0.157
668.48	0.106
668.68	0.127
668.87	0.117
669.07	0.201
669.26	0.030
669.46	-0.008
669.66	-0.021
669.85	0.077
670.05	0.077
670.24	0.166
670.44	0.123
670.63	0.149
670.83	0.152
671.02	0.346
671.22	0.177
671.42	-0.118
671.61	0.081
671.81	-0.009
672.00	0.163
672.20	0.118
672.39	-0.021
672.59	0.139
672.78	0.141
672.98	-0.173
673.17	-0.229
673.37	0.033
673.56	0.175
673.76	0.070
673.95	-0.025
674.15	-0.208
674.34	-0.004
674.54	-0.045
674.73	-0.060
674.93	0.072
675.13	-0.060
675.32	-0.146
675.52	-0.004
675.71	-0.054
675.91	0.041
676.10	-0.004
676.30	0.084
676.49	0.076
676.69	0.108
676.88	-0.041
677.08	-0.140
677.27	0.058
677.47	-0.070
677.66	-0.049
677.86	0.240
678.05	-0.221
678.24	-0.072
678.44	0.000
678.63	-0.047
678.83	-0.095
679.02	0.116
679.22	0.149
679.41	-0.093
679.61	-0.156
679.80	0.163
680.00	0.056
680.19	0.000
680.39	-0.055
680.58	0.017
680.78	0.097
680.97	0.106
681.17	0.104
681.36	0.008
681.56	0.017
681.75	0.067
681.94	-0.132
682.14	-0.077
682.33	-0.135
682.53	-0.025
682.72	-0.004
682.92	-0.029
683.11	-0.093
683.31	-0.210
683.50	0.196
683.69	0.065
683.89	0.147
684.08	0.089
684.28	0.077
684.47	-0.204
684.67	-0.045
684.86	0.021
685.06	-0.078
685.25	-0.029
685.44	0.078
685.64	-0.033
685.83	0.205
686.03	-0.126
686.22	0.209
686.42	-0.102
686.61	-0.192
686.80	-0.042
687.00	0.058
687.19	0.058
687.39	-0.224
687.58	0.185
687.77	0.179
687.97	-0.052
688.16	0.024
688.36	0.061
688.55	-0.108
688.74	0.025
688.94	-0.052
689.13	-0.160
689.33	-0.021
689.52	0.120
689.71	-0.073
689.91	0.040
690.10	0.048
690.30	-0.024
690.49	0.004
690.68	-0.233
690.88	0.030
691.07	-0.098
691.27	-0.140
691.46	-0.107
691.65	-0.065
691.85	-0.131
692.04	0.000
692.23	0.013
692.43	-0.255
692.62	0.053
692.82	-0.057
693.01	0.021
693.20	-0.025
693.40	0.049
693.59	-0.085
693.78	0.000
693.98	-0.266
694.17	-0.109
694.36	-0.259
694.56	-0.203
694.75	-0.130
694.94	0.024
695.14	-0.115
695.33	-0.045
695.53	-0.168
695.72	-0.025
695.91	-0.026
696.11	0.077
696.30	0.000
696.49	-0.030
696.69	0.017
696.88	-0.046
697.07	0.093
697.27	-0.099
697.46	-0.078
697.65	-0.044
697.85	-0.084
698.04	0.072
698.23	-0.069
698.43	-0.036
698.62	0.163
698.81	-0.040
699.01	-0.061
699.20	-0.050
699.39	-0.085
699.58	0.158
699.78	-0.067
699.97	-0.058
700.16	-0.136
700.36	-0.004
700.55	-0.147
700.74	0.058
700.94	0.095
701.13	0.134
701.32	-0.128
701.52	-0.136
701.71	-0.037
701.90	-0.217
702.09	0.098
702.29	-0.210
702.48	0.091
702.67	0.025
702.87	-0.042
703.06	-0.070
703.25	0.049
703.44	0.057
703.64	-0.287
703.83	-0.119
704.02	0.145
704.22	-0.142
704.41	0.009
704.60	-0.075
704.79	-0.031
704.99	0.013
705.18	0.083
705.37	-0.165
705.56	0.034
705.76	0.046
705.95	-0.071
706.14	-0.038
706.33	-0.212
706.53	-0.046
706.72	0.000
706.91	-0.172
707.11	0.051
707.30	-0.115
707.49	-0.004
707.68	-0.144
707.88	-0.166
708.07	-0.130
708.26	-0.047
708.45	-0.060
708.64	0.004
708.84	0.050
709.03	-0.096
709.22	-0.079
709.41	-0.046
709.61	-0.274
709.80	-0.184
709.99	-0.170
710.18	0.133
710.38	-0.212
710.57	-0.100
710.76	-0.237
710.95	-0.065
711.14	-0.184
711.34	-0.042
711.53	0.004
711.72	-0.192
711.91	-0.146
712.11	0.013
712.30	0.080
712.49	-0.158
712.68	-0.173
712.87	-0.026
713.07	-0.061
713.26	-0.216
713.45	-0.079
713.64	-0.062
713.83	0.109
714.03	-0.061
714.22	-0.189
714.41	-0.048
714.60	-0.285
714.79	-0.250
714.99	-0.055
715.18	-0.083
715.37	-0.031
715.56	0.075
715.75	0.022
715.94	-0.004
716.14	-0.040
716.33	0.031
716.52	0.014
716.71	-0.279
716.90	0.086
717.10	-0.090
717.29	-0.098
717.48	-0.144
717.67	0.027
717.86	0.018
718.05	-0.145
718.24	-0.097
718.44	-0.120
718.63	-0.111
718.82	0.164
719.01	-0.120
719.20	0.115
719.39	-0.131
719.59	-0.235
719.78	-0.005
719.97	-0.130
720.16	-0.042
720.35	-0.117
720.54	-0.111
720.73	-0.121
720.93	0.164
721.12	-0.060
721.31	0.051
721.50	-0.107
721.69	-0.232
721.88	-0.115
722.07	-0.063
722.27	0.037
722.46	-0.327
722.65	-0.095
722.84	0.024
723.03	0.134
723.22	-0.137
723.41	0.065
723.60	0.005
723.79	0.059
723.99	0.148
724.18	-0.074
724.37	0.009
724.56	-0.014
724.75	0.080
724.94	-0.005
725.13	-0.160
725.32	-0.014
725.51	0.166
725.71	-0.235
725.90	-0.010
726.09	0.071
726.28	0.033
726.47	-0.124
726.66	0.038
726.85	-0.083
727.04	0.169
727.23	0.120
727.42	0.140
727.61	-0.136
727.81	0.063
728.00	-0.087
728.19	-0.202
728.38	-0.090
728.57	0.143
728.76	-0.158
728.95	0.185
729.14	-0.094
729.33	-0.080
729.52	0.030
729.71	0.030
729.90	-0.121
730.09	-0.289
730.28	-0.015
730.48	0.102
730.67	0.050
730.86	0.005
731.05	-0.183
731.24	-0.343
731.43	-0.081
731.62	0.221
731.81	0.109
732.00	0.000
732.19	-0.037
732.38	-0.171
732.57	0.074
732.76	-0.095
732.95	-0.057
733.14	0.084
733.33	0.083
733.52	0.311
733.71	0.178
733.90	-0.010
734.09	-0.051
734.28	-0.297
734.47	0.016
734.66	0.124
734.85	-0.036
735.04	0.069
735.23	0.241
735.42	0.067
735.61	0.180
735.81	-0.316
736.00	-0.085
736.19	-0.057
736.38	0.153
736.57	-0.023
736.76	-0.060
736.95	0.049
737.14	-0.048
737.33	0.271
737.52	-0.154
737.71	-0.129
737.90	0.010
738.09	-0.101
738.28	-0.022
738.47	-0.045
738.66	0.148
738.85	-0.238
739.04	-0.134
739.22	0.065
739.41	0.111
739.60	0.156
739.79	0.064
739.98	0.052
740.17	0.023
740.36	0.123
740.55	0.155
740.74	-0.033
740.93	0.137
741.12	-0.212
741.31	0.062
741.50	0.074
741.69	0.211
741.88	0.174
742.07	0.143
742.26	-0.057
742.45	-0.248
742.64	0.017
742.83	0.372
743.02	-0.024
743.21	0.000
743.40	0.215
743.59	0.281
743.78	0.272
743.97	-0.174
744.16	0.285
744.34	0.294
744.53	0.603
744.72	0.193
744.91	0.303
745.10	0.039
745.29	0.199
745.48	0.154
745.67	0.114
745.86	0.333
746.05	0.254
746.24	0.183
746.43	0.133
746.62	0.108
746.81	-0.123
747.00	0.124
747.18	0.312
747.37	-0.128
747.56	0.198
747.75	0.200
747.94	-0.026
748.13	0.306
748.32	0.205
748.51	0.193
748.70	0.229
748.89	0.077
749.08	0.345
749.26	-0.021
749.45	-0.007
749.64	0.306
749.83	-0.078
750.02	0.180
750.21	0.217
750.40	0.467
750.59	0.089
750.78	0.141
750.96	0.369
751.15	0.270
751.34	0.209
751.53	-0.023
751.72	-0.151
751.91	0.111
752.10	-0.030
752.29	0.484
752.47	0.164
752.66	0.373
752.85	0.315
753.04	0.230
753.23	0.257
753.42	-0.032
753.61	0.248
753.80	0.441
753.98	0.502
754.17	0.056
754.36	0.663
754.55	0.339
754.74	0.465
754.93	0.070
755.12	0.253
755.30	0.358
755.49	0.455
755.68	0.361
755.87	0.249
756.06	0.466
756.25	0.177
756.43	0.696
756.62	0.615
756.81	0.820
757.00	0.884
757.19	0.310
757.38	0.637
757.56	0.624
757.75	0.441
757.94	1.147
758.13	0.879
758.32	0.866
758.51	0.612
758.69	0.821
758.88	0.715
759.07	0.767
759.26	0.791
759.45	0.703
759.63	0.883
759.82	1.044
760.01	1.108
760.20	0.207
760.39	1.379
760.57	0.785
760.76	0.845
760.95	1.378
761.14	1.180
761.33	0.959
761.51	1.147
761.70	0.626
761.89	0.790
762.08	1.330
762.27	1.342
762.45	1.007
762.64	0.809
762.83	1.080
763.02	0.644
763.21	0.908
763.39	0.738
763.58	0.982
763.77	1.202
763.96	1.327
764.14	1.477
764.33	0.832
764.52	1.166
764.71	1.361
764.89	1.534
765.08	1.889
765.27	1.015
765.46	1.612
765.65	2.107
765.83	2.084
766.02	1.931
766.21	2.135
766.40	2.553
766.58	2.179
766.77	3.105
766.96	3.214
767.15	3.112
767.33	3.314
767.52	4.184
767.71	3.966
767.90	4.340
768.08	4.840
768.27	4.151
768.46	5.752
768.64	4.695
768.83	5.514
769.02	6.216
769.21	5.100
769.39	5.602
769.58	5.870
769.77	7.039
769.96	7.557
770.14	6.706
770.33	6.817
770.52	7.108
770.70	7.438
770.89	7.721
771.08	7.952
771.27	9.028
771.45	9.159
771.64	8.729
771.83	9.035
772.01	9.288
772.20	10.050
772.39	9.420
772.57	9.190
772.76	9.909
772.95	11.166
773.14	10.575
773.32	10.762
773.51	10.978
773.70	11.660
773.88	11.266
774.07	11.883
774.26	12.358
774.44	12.230
774.63	13.227
774.82	11.985
775.00	11.970
775.19	13.802
775.38	12.312
775.56	12.731
775.75	14.818
775.94	14.581
776.12	15.449
776.31	16.439
776.50	17.685
776.68	18.212
776.87	18.849
777.06	16.941
777.24	18.529
777.43	18.895
777.62	20.213
777.80	21.231
777.99	21.412
778.18	23.279
778.36	22.972
778.55	23.421
778.74	24.706
778.92	24.113
779.11	26.664
779.29	24.474
779.48	25.852
779.67	24.436
779.85	25.207
780.04	27.719
780.23	28.252
780.41	28.595
780.60	28.833
780.79	28.978
780.97	29.808
781.16	29.597
781.34	29.616
781.53	29.837
781.72	30.986
781.90	30.294
782.09	31.858
782.28	31.688
782.46	33.091
782.65	32.726
782.83	34.321
783.02	34.397
783.21	36.002
783.39	35.052
783.58	34.073
783.76	34.874
783.95	33.972
784.14	33.476
784.32	33.204
784.51	32.341
784.69	31.010
784.88	31.183
785.06	30.995
785.25	28.187
785.44	28.781
785.62	27.578
785.81	29.127
785.99	27.693
786.18	27.948
786.37	27.885
786.55	28.053
786.74	26.651
786.92	29.266
787.11	29.309
787.29	28.332
787.48	28.432
787.67	28.768
787.85	29.306
788.04	29.130
788.22	27.867
788.41	27.458
788.59	27.403
788.78	26.873
788.96	26.492
789.15	26.451
789.34	25.779
789.52	24.364
789.71	23.876
789.89	23.566
790.08	21.769
790.26	22.008
790.45	20.215
790.63	19.643
790.82	19.734
791.00	20.045
791.19	17.599
791.38	18.037
791.56	17.976
791.75	16.226
791.93	16.952
792.12	16.854
792.30	15.310
792.49	15.068
792.67	14.889
792.86	14.809
793.04	15.515
793.23	14.560
793.41	14.333
793.60	13.513
793.78	13.701
793.97	13.831
794.15	14.201
794.34	14.342
794.52	14.063
794.71	13.782
794.89	13.645
795.08	13.870
795.26	13.643
795.45	13.690
795.63	14.275
795.82	14.403
796.00	15.171
796.19	15.771
796.37	15.251
796.56	16.464
796.74	17.404
796.93	17.968
797.11	17.237
797.30	17.144
797.48	17.397
797.67	17.678
797.85	17.011
798.04	16.907
798.22	16.974
798.41	17.171
798.59	19.579
798.77	18.346
798.96	18.344
799.14	18.538
799.33	19.138
799.51	19.082
799.70	19.289
799.88	19.994
800.07	19.299
800.25	18.596
800.44	19.038
800.62	19.174
800.80	19.055
800.99	19.405
801.17	18.788
801.36	19.754
801.54	18.318
801.73	18.239
801.91	18.993
802.10	18.589
802.28	19.575
802.46	19.083
802.65	17.496
802.83	17.331
803.02	16.602
803.20	15.001
803.39	14.205
803.57	15.088
803.75	15.076
803.94	14.042
804.12	15.391
804.31	13.179
804.49	13.519
804.67	13.592
804.86	12.768
805.04	12.517
805.23	13.504
805.41	12.666
805.59	12.806
805.78	12.284
805.96	12.964
806.15	12.709
806.33	13.265
806.51	13.700
806.70	13.566
806.88	12.820
807.07	13.780
807.25	14.096
807.43	13.700
807.62	15.473
807.80	14.873
807.99	14.464
808.17	13.674
808.35	14.686
808.54	15.875
808.72	15.996
808.90	16.694
809.09	16.419
809.27	17.135
809.46	17.158
809.64	17.721
809.82	18.140
810.01	19.639
810.19	20.583
810.37	20.412
810.56	20.766
810.74	22.056
810.92	21.646
811.11	21.570
811.29	22.353
811.48	22.758
811.66	23.402
811.84	24.021
812.03	24.397
812.21	25.258
812.39	25.510
812.58	25.629
812.76	25.144
812.94	26.097
813.13	26.431
813.31	26.879
813.49	26.665
813.68	27.436
813.86	27.257
814.04	27.288
814.23	28.831
814.41	28.601
814.59	29.481
814.78	29.625
814.96	31.131
815.14	32.554
815.33	33.748
815.51	31.875
815.69	34.402
815.87	33.125
816.06	34.622
816.24	35.485
816.42	36.244
816.61	36.202
816.79	35.711
816.97	37.418
817.16	38.830
817.34	39.087
817.52	39.620
817.70	39.223
817.89	37.918
818.07	41.234
818.25	40.697
818.44	40.359
818.62	41.479
818.80	41.045
818.98	41.625
819.17	41.337
819.35	44.190
819.53	44.426
819.72	46.560
819.90	49.202
820.08	47.671
820.26	50.511
820.45	49.493
820.63	51.074
820.81	53.805
820.99	52.426
821.18	52.953
821.36	54.921
821.54	51.781
821.73	52.885
821.91	54.247
822.09	53.736
822.27	52.624
822.46	55.412
822.64	53.594
822.82	54.133
823.00	54.262
823.19	53.757
823.37	52.109
823.55	52.842
823.73	51.794
823.91	54.554
824.10	52.333
824.28	52.930
824.46	54.475
824.64	53.036
824.83	51.191
825.01	53.165
825.19	54.597
825.37	55.673
825.56	50.620
825.74	52.635
825.92	49.119
826.10	48.939
826.28	48.790
826.47	48.195
826.65	46.274
826.83	46.201
827.01	47.438
827.19	44.430
827.38	45.992
827.56	43.644
827.74	44.229
827.92	42.265
828.10	44.294
828.29	42.843
828.47	42.577
828.65	43.174
828.83	42.208
829.01	41.441
829.20	42.359
829.38	42.303
829.56	43.470
829.74	43.405
829.92	43.421
830.10	43.271
830.29	42.137
830.47	44.081
830.65	42.327
830.83	43.251
831.01	43.079
831.20	43.599
831.38	43.054
831.56	41.129
831.74	40.937
831.92	43.707
832.10	42.823
832.29	43.622
832.47	44.421
832.65	46.411
832.83	43.893
833.01	46.832
833.19	45.866
833.37	45.356
833.56	45.281
833.74	45.245
833.92	46.124
834.10	47.009
834.28	44.018
834.46	44.949
834.64	44.573
834.83	41.590
835.01	43.687
835.19	43.051
835.37	44.706
835.55	43.855
835.73	43.646
835.91	41.129
836.09	41.993
836.28	41.822
836.46	40.330
836.64	39.210
836.82	38.640
837.00	37.335
837.18	36.763
837.36	37.094
837.54	38.714
837.72	37.687
837.91	37.459
838.09	36.101
838.27	36.543
838.45	37.833
838.63	38.072
838.81	37.928
838.99	37.524
839.17	39.315
839.35	41.059
839.53	39.472
839.72	39.972
839.90	36.864
840.08	35.926
840.26	35.862
840.44	32.785
840.62	33.224
840.80	34.218
840.98	34.904
841.16	34.155
841.34	35.462
841.52	33.862
841.70	35.940
841.89	37.902
842.07	35.425
842.25	36.417
842.43	38.732
842.61	36.573
842.79	37.586
842.97	35.838
843.15	37.308
843.33	37.315
843.51	37.246
843.69	38.694
843.87	39.401
844.05	39.546
844.23	41.170
844.41	43.208
844.59	44.532
844.77	44.193
844.95	46.897
845.13	47.908
845.31	43.431
845.50	47.181
845.68	48.326
845.86	45.769
846.04	48.394
846.22	44.809
846.40	48.526
846.58	45.451
846.76	48.396
846.94	47.288
847.12	48.074
847.30	46.478
847.48	47.474
847.66	48.848
847.84	46.270
848.02	47.736
848.20	48.841
848.38	49.586
848.56	49.607
848.74	49.114
848.92	52.188
849.10	49.843
849.28	52.812
849.46	51.433
849.64	51.114
849.82	52.354
850.00	52.020
850.18	48.177
850.36	50.000
850.54	49.222
850.72	47.052
850.90	48.093
851.08	46.227
851.26	48.981
851.44	48.597
851.62	50.814
851.80	48.397
851.98	49.270
852.16	51.559
852.34	47.775
852.52	45.316
852.70	46.954
852.87	47.039
853.05	43.003
853.23	43.080
853.41	44.934
853.59	45.837
853.77	45.681
853.95	46.789
854.13	46.004
854.31	48.184
854.49	47.117
854.67	46.740
854.85	44.322
855.03	46.767
855.21	45.651
855.39	44.719
855.57	46.779
855.75	47.461
855.93	48.632
856.11	43.942
856.28	49.266
856.46	52.632
856.64	53.152
856.82	49.400
857.00	51.613
857.18	51.372
857.36	54.737
857.54	56.595
857.72	57.897
857.90	57.554
858.08	60.016
858.26	62.408
858.44	63.946
858.61	59.668
858.79	64.574
858.97	64.541
859.15	62.868
859.33	64.686
859.51	65.815
859.69	66.004
859.87	69.356
860.05	66.239
860.23	68.777
860.40	66.715
860.58	65.241
860.76	65.180
860.94	67.691
861.12	65.277
861.30	67.963
861.48	66.992
861.66	67.208
861.84	64.967
862.01	63.417
862.19	66.781
862.37	64.130
862.55	65.167
862.73	63.584
862.91	64.448
863.09	65.196
863.27	61.781
863.44	63.100
863.62	64.674
863.80	60.887
863.98	63.019
864.16	63.424
864.34	62.087
864.52	58.875
864.69	60.970
864.87	60.814
865.05	61.082
865.23	58.776
865.41	62.602
865.59	62.268
865.76	60.118
865.94	62.491
866.12	62.439
866.30	62.168
866.48	63.921
866.66	59.745
866.83	63.578
867.01	61.723
867.19	62.775
867.37	59.720
867.55	60.525
867.73	59.667
867.90	62.543
868.08	59.446
868.26	60.717
868.44	63.350
868.62	64.648
868.79	61.558
868.97	66.168
869.15	65.322
869.33	68.050
869.51	67.233
869.69	63.760
869.86	63.345
870.04	66.784
870.22	63.058
870.40	65.503
870.57	63.122
870.75	62.151
870.93	60.879
871.11	59.546
871.29	61.855
871.46	56.830
871.64	61.279
871.82	57.348
872.00	57.983
872.18	58.433
872.35	56.531
872.53	55.282
872.71	52.969
872.89	55.437
873.06	55.423
873.24	53.407
873.42	53.606
873.60	54.464
873.77	54.222
873.95	52.756
874.13	52.354
874.31	50.889
874.49	51.147
874.66	51.625
874.84	51.087
875.02	49.182
875.20	50.381
875.37	48.591
875.55	49.464
875.73	51.016
875.91	51.837
876.08	49.718
876.26	53.001
876.44	56.037
876.61	53.013
876.79	54.481
876.97	51.216
877.15	55.290
877.32	54.219
877.50	54.229
877.68	51.675
877.86	54.514
878.03	53.149
878.21	52.365
878.39	52.746
878.56	52.581
878.74	54.163
878.92	55.217
879.10	54.748
879.27	55.068
879.45	53.272
879.63	51.753
879.80	52.739
879.98	54.283
880.16	54.549
880.34	55.688
880.51	54.758
880.69	56.323
880.87	55.161
881.04	55.201
881.22	53.451
881.40	55.675
881.57	53.776
881.75	53.255
881.93	55.706
882.10	54.539
882.28	54.189
882.46	52.983
882.63	51.643
882.81	51.869
882.99	51.166
883.16	50.648
883.34	49.218
883.52	50.067
883.69	51.025
883.87	48.904
884.05	51.521
884.22	50.331
884.40	49.311
884.58	49.658
884.75	50.466
884.93	49.907
885.11	52.360
885.28	50.627
885.46	51.935
885.64	49.373
885.81	49.080
885.99	49.619
886.17	49.322
886.34	50.992
886.52	49.464
886.70	51.465
886.87	48.933
887.05	47.882
887.22	47.022
887.40	44.868
887.58	41.845
887.75	44.992
887.93	41.904
888.11	45.211
888.28	43.916
888.46	44.663
888.63	41.506
888.81	43.918
888.99	41.842
889.16	44.128
889.34	44.367
889.51	44.538
889.69	45.449
889.87	42.925
890.04	43.953
890.22	43.568
890.39	44.477
890.57	45.277
890.75	44.149
890.92	45.479
891.10	43.568
891.27	44.993
891.45	43.483
891.63	41.803
891.80	42.102
891.98	41.646
892.15	40.727
892.33	43.229
892.51	41.486
892.68	41.752
892.86	42.876
893.03	43.240
893.21	41.883
893.38	44.993
893.56	43.112
893.74	47.601
893.91	48.954
894.09	47.049
894.26	47.487
894.44	51.354
894.61	49.110
894.79	51.995
894.96	52.560
895.14	51.981
895.32	49.794
895.49	55.138
895.67	54.174
895.84	55.017
896.02	56.777
896.19	54.216
896.37	56.329
896.54	56.397
896.72	58.644
896.89	57.673
897.07	58.701
897.25	58.822
897.42	57.870
897.60	60.920
897.77	63.001
897.95	63.596
898.12	64.659
898.30	64.148
898.47	67.915
898.65	63.260
898.82	65.253
899.00	65.927
899.17	65.574
899.35	68.649
899.52	67.009
899.70	66.451
899.87	64.247
900.05	67.520
900.22	66.738
900.40	67.080
900.57	67.278
900.75	65.363
900.92	65.546
901.10	62.805
901.27	64.494
901.45	63.321
901.62	62.243
901.80	59.451
901.97	58.894
902.15	62.666
902.32	60.665
902.50	59.931
902.67	59.977
902.85	60.192
903.02	64.998
903.20	59.827
903.37	60.298
903.54	59.313
903.72	58.405
903.89	57.197
904.07	57.578
904.24	59.295
904.42	60.408
904.59	57.761
904.77	57.544
904.94	55.128
905.12	57.646
905.29	52.853
905.47	55.597
905.64	54.693
905.81	53.372
905.99	55.911
906.16	57.126
906.34	56.400
906.51	53.422
906.69	58.257
906.86	55.355
907.03	56.837
907.21	57.867
907.38	56.560
907.56	53.206
907.73	53.328
907.91	55.299
908.08	54.503
908.25	54.055
908.43	57.216
908.60	53.959
908.78	56.476
908.95	54.385
909.13	57.125
909.30	57.715
909.47	55.387
909.65	56.242
909.82	50.103
910.00	53.741
910.17	52.958
910.34	52.816
910.52	51.347
910.69	52.697
910.87	49.424
911.04	53.613
911.21	49.076
911.39	47.631
911.56	49.090
911.73	47.453
911.91	49.262
912.08	46.780
912.26	48.952
912.43	44.605
912.60	45.596
912.78	47.542
912.95	45.279
913.13	47.231
913.30	44.935
913.47	47.996
913.65	45.934
913.82	43.682
913.99	43.433
914.17	41.937
914.34	37.994
914.51	41.972
914.69	39.699
914.86	36.792
915.03	36.242
915.21	36.165
915.38	37.194
915.56	38.231
915.73	41.477
915.90	39.018
916.08	42.728
916.25	41.737
916.42	39.033
916.60	37.862
916.77	40.831
916.94	39.440
917.12	40.606
917.29	40.052
917.46	44.756
917.64	44.133
917.81	42.804
917.98	46.845
918.16	46.246
918.33	48.030
918.50	47.012
918.67	43.573
918.85	48.799
919.02	47.371
919.19	47.775
919.37	50.984
919.54	48.050
919.71	46.992
919.89	51.609
920.06	47.263
920.23	44.127
920.41	44.718
920.58	47.533
920.75	50.602
920.92	47.523
921.10	50.000
921.27	45.813
921.44	48.924
921.62	51.149
921.79	47.503
921.96	50.789
922.13	54.341
922.31	48.810
922.48	50.534
922.65	52.158
922.82	47.600
923.00	44.964
923.17	46.792
923.34	51.764
923.52	47.266
923.69	47.556
923.86	47.342
924.03	44.868
924.21	46.213
924.38	45.512
924.55	47.158
924.72	43.659
924.90	53.214
925.07	50.146
925.24	44.484
925.41	47.301
925.59	43.989
925.76	45.442
925.93	50.000
926.10	43.545
926.28	43.625
926.45	41.233
926.62	42.188
926.79	41.414
926.96	41.573
927.14	42.083
927.31	43.767
927.48	40.826
927.65	41.667
927.83	43.605
928.00	38.250
928.17	42.974
928.34	38.854
928.51	43.962
928.69	40.759
928.86	45.729
929.03	41.334
929.20	41.142
929.37	37.691
929.55	46.937
929.72	42.507
929.89	45.290
930.06	43.590
930.23	40.063
930.41	39.578
930.58	40.785
930.75	40.932
930.92	42.040
931.09	43.837
931.27	39.766
931.44	43.276
931.61	38.253
931.78	35.997
931.95	41.382
932.12	41.437
932.30	38.408
932.47	40.731
932.64	37.772
932.81	41.594
932.98	40.304
933.16	41.412
933.33	42.287
933.50	41.971
933.67	40.462
933.84	44.575
934.01	42.568
934.18	43.109
934.36	43.536
934.53	39.926
934.70	46.491
934.87	36.114
935.04	44.655
935.21	42.384
935.38	47.712
935.56	44.028
935.73	43.980
935.90	45.870
936.07	37.857
936.24	40.764
936.41	43.514
936.58	39.328
936.76	38.997
936.93	41.850
937.10	46.102
937.27	40.508
937.44	42.687
937.61	48.517
937.78	43.611
937.95	51.228
938.13	47.195
938.30	46.593
938.47	47.546
938.64	43.596
938.81	46.581
938.98	49.630
939.15	45.111
939.32	50.107
939.49	41.828
939.66	44.794
939.84	40.274
940.01	45.422
940.18	42.769
940.35	45.808
940.52	44.851
940.69	41.522
940.86	42.875
941.03	46.603
941.20	38.436
941.37	47.101
941.54	44.100
941.71	45.172
941.89	43.902
942.06	40.904
942.23	42.892
942.40	44.253
942.57	49.813
942.74	47.724
942.91	48.793
943.08	45.685
943.25	53.090
943.42	54.494
943.59	46.527
943.76	49.123
943.93	52.115
944.10	52.249
944.27	46.113
944.44	43.669
944.61	48.143
944.79	49.014
944.96	55.423
945.13	51.890
945.30	57.317
945.47	49.726
945.64	51.120
945.81	52.770
945.98	49.793
946.15	54.558
946.32	55.216
946.49	53.859
946.66	44.240
946.83	51.786
947.00	55.662
947.17	54.357
947.34	54.876
947.51	53.905
947.68	48.738
947.85	54.805
948.02	50.000
948.19	48.013
948.36	53.130
948.53	60.554
948.70	66.487
948.87	56.814
949.04	54.154
949.21	53.135
949.38	59.184
949.55	50.613
949.72	55.684
949.89	47.969
950.06	53.439
950.23	59.764
950.40	52.405
950.57	61.982
950.74	62.898
950.91	51.654
951.08	58.711
951.25	57.414
951.42	64.650
951.59	55.335
951.76	52.929
951.93	56.655
952.10	51.449
952.27	46.930
952.44	60.816
952.61	56.129
952.77	60.342
952.94	64.837
953.11	58.476
953.28	62.075
953.45	68.089
953.62	50.817
953.79	57.407
953.96	54.492
954.13	57.280
954.30	72.984
954.47	61.416
954.64	68.462
954.81	67.606
954.98	54.144
955.15	61.800
955.32	56.239
955.49	68.297
955.65	65.800
955.82	61.507
955.99	61.676
956.16	65.680
956.33	57.455
956.50	59.533
956.67	55.734
956.84	52.060
957.01	58.656
957.18	55.070
957.35	53.427
957.52	55.422
957.68	54.688
957.85	60.213
958.02	58.647
958.19	57.317
958.36	72.986
958.53	64.844
958.70	57.816
958.87	62.416
959.04	54.615
959.21	54.846
959.37	73.247
959.54	65.057
959.71	56.872
959.88	64.859
960.05	63.658
960.22	68.932
960.39	60.386
960.56	68.202
960.72	62.786
960.89	49.682
961.06	56.250
961.23	58.957
961.40	56.522
961.57	57.407
961.74	59.091
961.90	54.949
962.07	57.384
962.24	54.943
962.41	58.720
962.58	62.393
962.75	56.276
962.92	60.566
963.08	58.427
963.25	65.727
963.42	59.712
963.59	54.661
963.76	56.885
963.93	51.835
964.10	46.744
964.26	46.862
964.43	63.279
964.60	59.529
964.77	64.583
964.94	68.632
965.10	56.612
965.27	48.741
965.44	49.886
965.61	61.413
965.78	52.045
965.95	52.029
966.11	65.207
966.28	64.543
966.45	56.906
966.62	57.933
966.79	61.905
966.95	63.801
967.12	52.477
967.29	65.533
967.46	65.837
967.63	66.596
967.79	71.367
967.96	72.124
968.13	56.920
968.30	58.858
968.47	57.083
968.63	70.576
968.80	56.313
968.97	73.121
969.14	65.347
969.31	61.966
969.47	61.260
969.64	55.711
969.81	59.619
969.98	61.029
970.14	58.785
970.31	52.609
970.48	67.411
970.65	75.059
970.81	74.479
970.98	53.105
971.15	56.184
971.32	52.667
971.48	55.824
971.65	64.690
971.82	56.885
971.99	75.132
972.15	63.658
972.32	53.052
972.49	59.275
972.66	58.036
972.82	54.628
972.99	55.059
973.16	56.624
973.33	62.322
973.49	53.401
973.66	57.937
973.83	66.327
974.00	49.099
974.16	64.091
974.33	67.318
974.50	51.449
974.67	57.778
974.83	66.344
975.00	61.722
975.17	48.506
975.33	59.579
975.50	67.473
975.67	61.521
975.84	60.470
976.00	59.529
976.17	56.235
976.34	59.799
976.50	67.127
976.67	56.651
976.84	61.735
977.00	62.884
977.17	67.887
977.34	57.416
977.50	65.684
977.67	69.863
977.84	71.060
978.01	66.230
978.17	66.499
978.34	76.427
978.51	60.048
978.67	74.541
978.84	59.310
979.01	56.132
979.17	67.368
979.34	77.202
979.51	61.500
979.67	66.262
979.84	80.285
980.01	66.743
980.17	62.069
980.34	67.188
980.51	76.212
980.67	62.857
980.84	64.948
981.01	62.879
981.17	59.804
981.34	48.842
981.50	63.942
981.67	64.516
981.84	62.103
982.00	60.309
982.17	62.850
982.34	61.215
982.50	65.854
982.67	68.992
982.84	66.121
983.00	73.107
983.17	61.239
983.33	72.889
983.50	66.368
983.67	68.502
983.83	69.488
984.00	68.029
984.17	58.584
984.33	61.000
984.50	59.619
984.66	77.062
984.83	67.949
985.00	61.556
985.16	72.911
985.33	71.136
985.49	73.885
985.66	68.337
985.83	66.189
985.99	66.667
986.16	63.209
986.32	63.052
986.49	68.100
986.66	64.237
986.82	64.629
986.99	69.697
987.15	64.720
987.32	62.736
987.49	67.195
987.65	54.079
987.82	59.021
987.98	59.390
988.15	79.644
988.31	57.447
988.48	57.820
988.65	57.937
988.81	61.521
988.98	54.832
989.14	58.531
989.31	56.126
989.47	56.971
989.64	52.477
989.80	52.817
989.97	45.238
990.14	50.213
990.30	53.606
990.47	56.311
990.63	51.740
990.80	56.907
990.96	43.088
991.13	45.759
991.29	59.145
991.46	64.371
991.62	51.628
991.79	54.697
991.95	54.402
992.12	48.980
992.29	47.967
992.45	54.587
992.62	43.498
992.78	38.155
992.95	56.699
993.11	45.861
993.28	54.768
993.44	43.326
993.61	44.813
993.77	50.785
993.94	36.613
994.10	52.743
994.27	48.166
994.43	38.819
994.60	55.750
994.76	47.575
994.93	44.419
995.09	51.213
995.26	50.243
995.42	55.718
995.59	35.620
995.75	49.074
995.92	45.412
996.08	47.765
996.25	42.222
996.41	37.500
996.58	53.653
996.74	33.546
996.91	45.953
997.07	44.634
997.23	43.382
997.40	42.605
997.56	40.654
997.73	44.000
997.89	32.886
998.06	38.546
998.22	38.821
998.39	42.227
998.55	36.259
998.72	36.449
998.88	54.000
999.05	41.452
999.21	37.470
999.37	50.000
999.54	43.687
999.70	35.886
999.87	39.698
1000.03	46.804
1000.20	39.183
1000.36	37.650
1000.52	41.213
1000.69	50.707
1000.85	42.117
1001.02	42.694
1001.18	44.742
1001.35	47.134
1001.51	50.111
1001.67	49.220
1001.84	49.578
1002.00	41.807
1002.17	29.817
1002.33	45.902
1002.50	42.212
1002.66	44.787
1002.82	45.729
1002.99	49.333
1003.15	41.353
1003.32	48.371
1003.48	37.321
1003.64	34.351
1003.81	43.258
1003.97	32.420
1004.14	52.133
1004.30	45.455
1004.46	53.786
1004.63	41.991
1004.79	50.000
1004.95	40.360
1005.12	52.473
1005.28	47.906
1005.45	43.088
1005.61	49.878
1005.77	49.754
1005.94	53.139
1006.10	42.317
1006.26	51.319
1006.43	39.100
1006.59	49.719
1006.76	47.230
1006.92	55.529
1007.08	57.416
1007.25	55.408
1007.41	41.487
1007.57	40.441
1007.74	50.882
1007.90	46.134
1008.06	58.594
1008.23	57.436
1008.39	56.904
1008.55	57.373
1008.72	51.372
1008.88	52.889
1009.04	56.156
1009.21	49.881
1009.37	58.158
1009.53	52.518
1009.70	63.172
1009.86	71.429
1010.02	48.975
1010.19	66.571
1010.35	66.372
1010.51	68.735
1010.68	62.626
1010.84	57.480
1011.00	57.949
1011.17	66.759
1011.33	53.056
1011.49	53.955
1011.66	55.385
1011.82	48.338
1011.98	68.278
1012.14	40.822
1012.31	66.077
1012.47	51.151
1012.63	61.494
1012.80	55.556
1012.96	50.802
1013.12	46.944
1013.29	55.125
1013.45	55.091
1013.61	63.824
1013.77	57.106
1013.94	46.214
1014.10	43.333
1014.26	52.228
1014.43	50.824
1014.59	49.728
1014.75	55.181
1014.91	50.114
1015.08	45.763
1015.24	56.686
1015.40	44.500
1015.56	44.211
1015.73	49.630
1015.89	44.624
1016.05	40.758
1016.21	55.270
1016.38	48.257
1016.54	54.094
1016.70	51.176
1016.86	48.563
1017.03	51.226
1017.19	40.898
1017.35	48.585
1017.51	41.918
1017.68	45.974
1017.84	41.412
1018.00	56.397
1018.16	46.111
1018.33	53.652
1018.49	56.825
1018.65	49.319
1018.81	54.128
1018.97	55.241
1019.14	57.221
1019.30	43.343
1019.46	63.230
1019.62	40.625
1019.79	50.157
1019.95	56.812
1020.11	61.059
1020.27	43.934
1020.43	56.491
1020.60	55.303
1020.76	56.554
1020.92	60.224
1021.08	53.289
1021.24	57.764
1021.41	49.667
1021.57	52.586
1021.73	57.705
1021.89	48.026
1022.05	50.174
1022.21	50.278
1022.38	40.857
1022.54	41.834
1022.70	54.333
1022.86	53.890
1023.02	53.333
1023.19	69.408
1023.35	59.807
1023.51	38.141
1023.67	51.744
1023.83	58.015
1023.99	51.056
1024.16	49.206
1024.32	60.518
1024.48	61.348
1024.64	57.285
1024.80	66.312
1024.96	49.383
1025.12	62.696
1025.29	56.890
1025.45	76.071
1025.61	49.355
1025.77	53.430
1025.93	56.832
1026.09	46.332
1026.26	66.892
1026.42	69.262
1026.58	54.671
1026.74	67.843
1026.90	50.151
1027.06	44.224
1027.22	54.362
1027.38	57.801
1027.55	71.359
1027.71	50.000
1027.87	65.424
1028.03	50.598
1028.19	58.983
1028.35	58.303
1028.51	60.714
1028.67	51.331
1028.83	48.918
1029.00	57.931
1029.16	67.812
1029.32	56.015
1029.48	51.953
1029.64	71.803
1029.80	66.260
1029.96	106.349
1030.12	52.015
1030.28	58.246
1030.44	65.079
1030.61	72.996
1030.77	54.098
1030.93	75.794
1031.09	45.490
1031.25	83.249
1031.41	62.249
1031.57	62.869
1031.73	50.833
1031.89	64.664
1032.05	56.554
1032.21	52.245
1032.37	58.633
1032.53	60.300
1032.69	70.386
1032.86	66.827
1033.02	40.199
1033.18	50.385
1033.34	61.649
1033.50	50.259
1033.66	62.264
1033.82	67.033
1033.98	40.517
1034.14	66.359
1034.30	65.267
1034.46	69.925
1034.62	39.608
1034.78	40.441
1034.94	48.375
1035.10	49.029
1035.26	42.268
1035.42	63.245
1035.58	50.181
1035.74	66.805
1035.90	64.390
1036.06	59.176
1036.22	40.458
1036.38	66.960
1036.54	70.492
1036.70	46.667
1036.86	69.072
1037.02	45.421
1037.18	70.000
1037.34	55.159
1037.50	56.796
1037.66	69.474
1037.82	69.444
1037.98	49.462
1038.14	64.641
1038.30	45.385
1038.46	56.115
1038.62	43.662
1038.78	44.231
1038.94	44.828
1039.10	56.459
1039.26	69.397
1039.42	44.495
1039.58	43.195
1039.74	45.188
1039.90	45.500
1040.06	61.951
>>>>>End Processed Spectral Data<<<<<
