SpectraSuite Data File
++++++++++++++++++++++++++++++++++++
Date: Wed Jan 25 18:25:01 EET 2017
User: TheoProf
Dark Spectrum Present: Yes
Reference Spectrum Present: Yes
Number of Sampled Component Spectra: 1
Spectrometers: USB4C02475
Integration Time (usec): 64136 (USB4C02475)
Spectra Averaged: 1 (USB4C02475)
Boxcar Smoothing: 0 (USB4C02475)
Correct for Electrical Dark: No (USB4C02475)
Strobe/Lamp Enabled: No (USB4C02475)
Correct for Detector Non-linearity: No (USB4C02475)
Correct for Stray Light: No (USB4C02475)
Number of Pixels in Processed Spectrum: 3648
>>>>>Begin Processed Spectral Data<<<<<
344.91	266.667
345.13	266.667
345.35	266.667
345.57	121.429
345.79	-125.000
346.00	47.368
346.22	1000.000
346.44	51.724
346.66	880.000
346.87	96.552
347.09	-60.000
347.31	106.522
347.53	58.824
347.74	60.526
347.96	-3.571
348.18	441.667
348.40	105.263
348.61	-30.769
348.83	69.697
349.05	39.344
349.27	-33.333
349.48	-11.765
349.70	141.176
349.92	77.419
350.14	106.557
350.35	111.111
350.57	-29.167
350.79	41.176
351.01	81.538
351.22	250.000
351.44	29.487
351.66	-260.000
351.87	177.778
352.09	225.000
352.31	71.429
352.53	63.333
352.74	72.414
352.96	60.000
353.18	-31.707
353.40	-500.000
353.61	38.095
353.83	181.818
354.05	230.000
354.26	34.848
354.48	71.429
354.70	89.474
354.92	26.923
355.13	24.138
355.35	32.075
355.57	66.667
355.78	90.323
356.00	4.167
356.22	115.068
356.44	64.062
356.65	-11.538
356.87	-11.538
357.09	22.000
357.30	36.735
357.52	733.333
357.74	36.364
357.95	95.833
358.17	115.909
358.39	37.209
358.60	6.250
358.82	-138.462
359.04	240.000
359.26	-3.922
359.47	63.889
359.69	36.634
359.91	50.000
360.12	-220.000
360.34	-8.108
360.56	116.667
360.77	38.462
360.99	48.276
361.21	48.214
361.42	2.128
361.64	337.500
361.86	33.333
362.07	36.585
362.29	15.909
362.51	94.048
362.72	315.385
362.94	115.385
363.16	75.000
363.37	46.875
363.59	8.000
363.81	143.750
364.02	79.592
364.24	-292.308
364.46	65.385
364.67	300.000
364.89	6.061
365.11	5.556
365.32	67.857
365.54	-157.895
365.76	48.276
365.97	69.697
366.19	190.909
366.41	-57.143
366.62	45.714
366.84	571.429
367.05	-30.909
367.27	54.545
367.49	100.000
367.70	-42.857
367.92	18.421
368.14	61.905
368.35	-32.353
368.57	56.962
368.79	67.925
369.00	44.898
369.22	-250.000
369.43	50.000
369.65	17.500
369.87	77.143
370.08	102.778
370.30	360.000
370.51	200.000
370.73	-10.606
370.95	-26.923
371.16	16.667
371.38	187.500
371.60	-1333.333
371.81	157.895
372.03	52.174
372.24	-600.000
372.46	58.621
372.68	-45.833
372.89	64.912
373.11	-27.119
373.32	-100.000
373.54	68.421
373.76	108.163
373.97	70.270
374.19	7.692
374.40	15.517
374.62	-9.375
374.84	76.000
375.05	24.074
375.27	32.000
375.48	23.529
375.70	-27.586
375.92	75.000
376.13	-16.667
376.35	-4.762
376.56	314.286
376.78	36.364
376.99	10.769
377.21	-81.395
377.43	73.077
377.64	14.286
377.86	0.000
378.07	-0.000
378.29	38.636
378.51	13.580
378.72	53.425
378.94	101.429
379.15	80.702
379.37	46.000
379.58	-106.250
379.80	118.750
380.01	2.632
380.23	-6.667
380.45	-65.789
380.66	5.797
380.88	109.091
381.09	-9.375
381.31	37.500
381.52	-143.478
381.74	38.947
381.95	-420.000
382.17	97.727
382.39	39.655
382.60	90.476
382.82	-24.000
383.03	143.750
383.25	1.250
383.46	126.316
383.68	-18.182
383.89	13.333
384.11	3.390
384.32	16.279
384.54	35.354
384.76	-6.522
384.97	-47.059
385.19	-4.167
385.40	22.581
385.62	32.759
385.83	28.571
386.05	46.667
386.26	-22.222
386.48	39.344
386.69	48.148
386.91	0.000
387.12	43.077
387.34	-13.462
387.55	-194.444
387.77	8.219
387.98	24.510
388.20	21.053
388.41	0.000
388.63	6.000
388.84	48.529
389.06	59.091
389.27	55.446
389.49	35.385
389.70	52.941
389.92	-32.143
390.13	65.306
390.35	52.941
390.56	96.078
390.78	20.455
390.99	-12.676
391.21	50.000
391.42	11.111
391.64	-2.500
391.85	115.278
392.07	112.500
392.28	-4.918
392.50	28.889
392.71	-17.742
392.93	46.552
393.14	17.925
393.36	45.283
393.57	-5.376
393.79	-4700.000
394.00	98.039
394.22	38.889
394.43	17.204
394.65	3.226
394.86	1.923
395.08	11.392
395.29	9.412
395.50	12.195
395.72	-48.387
395.93	48.120
396.15	33.871
396.36	-13.793
396.58	32.174
396.79	16.216
397.01	51.562
397.22	-16.418
397.44	58.824
397.65	65.000
397.87	83.784
398.08	37.607
398.29	58.824
398.51	14.667
398.72	20.455
398.94	7.018
399.15	-11.881
399.37	31.343
399.58	37.234
399.80	5.882
400.01	38.095
400.22	17.593
400.44	5.556
400.65	13.235
400.87	9.483
401.08	23.485
401.30	-40.278
401.51	16.129
401.72	46.452
401.94	30.172
402.15	-33.621
402.37	17.925
402.58	6.944
402.80	5.479
403.01	-4.938
403.22	26.316
403.44	1.515
403.65	51.471
403.87	-7.143
404.08	-0.641
404.30	23.077
404.51	43.220
404.72	31.915
404.94	-1.527
405.15	12.162
405.37	40.157
405.58	4.286
405.79	8.421
406.01	44.444
406.22	37.600
406.44	21.986
406.65	15.625
406.86	17.881
407.08	51.852
407.29	28.947
407.51	34.615
407.72	2.778
407.93	28.947
408.15	37.423
408.36	58.394
408.58	34.054
408.79	15.493
409.00	26.452
409.22	26.230
409.43	24.113
409.64	20.313
409.86	17.901
410.07	16.456
410.29	43.925
410.50	17.797
410.71	17.647
410.93	42.246
411.14	22.086
411.35	56.209
411.57	15.663
411.78	16.568
412.00	37.762
412.21	21.918
412.42	37.126
412.64	17.424
412.85	46.199
413.06	29.358
413.28	32.000
413.49	39.130
413.70	28.814
413.92	53.103
414.13	17.857
414.34	34.031
414.56	19.018
414.77	58.235
414.98	39.267
415.20	62.428
415.41	42.778
415.63	42.982
415.84	33.333
416.05	45.652
416.27	24.091
416.48	41.393
416.69	38.288
416.91	45.894
417.12	33.333
417.33	41.350
417.55	8.140
417.76	58.621
417.97	36.585
418.19	42.391
418.40	30.220
418.61	40.756
418.83	33.484
419.04	53.153
419.25	47.131
419.46	52.838
419.68	40.000
419.89	48.663
420.10	48.536
420.32	44.622
420.53	34.137
420.74	43.077
420.96	42.231
421.17	32.411
421.38	30.268
421.60	32.500
421.81	25.833
422.02	41.379
422.23	30.290
422.45	24.815
422.66	18.333
422.87	31.298
423.09	35.242
423.30	49.074
423.51	40.959
423.73	62.338
423.94	44.983
424.15	34.749
424.36	45.938
424.58	38.408
424.79	40.264
425.00	37.676
425.22	55.667
425.43	57.609
425.64	32.792
425.85	32.794
426.07	40.379
426.28	51.027
426.49	42.435
426.71	38.012
426.92	55.621
427.13	52.145
427.34	49.091
427.56	49.702
427.77	66.406
427.98	43.952
428.19	49.035
428.41	59.727
428.62	54.110
428.83	55.989
429.04	49.068
429.26	53.392
429.47	73.231
429.68	68.000
429.89	59.821
430.11	60.677
430.32	54.354
430.53	65.714
430.74	69.876
430.96	68.063
431.17	60.969
431.38	68.065
431.59	59.939
431.81	54.839
432.02	50.000
432.23	47.273
432.44	47.436
432.66	64.246
432.87	60.182
433.08	54.861
433.29	61.168
433.51	52.451
433.72	64.871
433.93	52.448
434.14	47.653
434.35	47.942
434.57	47.379
434.78	57.108
434.99	54.526
435.20	54.369
435.42	61.885
435.63	58.487
435.84	59.075
436.05	66.138
436.26	53.861
436.48	61.869
436.69	62.128
436.90	51.631
437.11	57.542
437.32	55.741
437.54	59.875
437.75	66.004
437.96	50.100
438.17	60.382
438.38	67.068
438.60	53.172
438.81	64.659
439.02	59.091
439.23	71.667
439.44	55.078
439.66	63.036
439.87	64.922
440.08	69.215
440.29	56.202
440.50	65.243
440.72	51.768
440.93	54.902
441.14	56.979
441.35	58.140
441.56	47.772
441.77	52.381
441.99	58.043
442.20	56.989
442.41	54.741
442.62	43.793
442.83	47.973
443.04	50.736
443.26	46.411
443.47	44.962
443.68	43.939
443.89	48.435
444.10	50.358
444.31	49.909
444.53	50.250
444.74	51.108
444.95	51.356
445.16	47.148
445.37	51.456
445.58	51.129
445.80	54.120
446.01	62.520
446.22	57.265
446.43	57.975
446.64	52.067
446.85	60.458
447.06	57.041
447.28	57.602
447.49	57.547
447.70	59.327
447.91	53.846
448.12	48.800
448.33	49.517
448.54	53.478
448.76	46.373
448.97	47.814
449.18	45.880
449.39	41.501
449.60	41.713
449.81	40.923
450.02	40.339
450.23	36.979
450.45	30.000
450.66	30.314
450.87	29.653
451.08	33.787
451.29	29.068
451.50	20.949
451.71	13.595
451.92	16.176
452.13	19.652
452.35	12.596
452.56	14.607
452.77	18.452
452.98	15.342
453.19	11.494
453.40	8.268
453.61	10.604
453.82	9.197
454.03	9.080
454.25	9.935
454.46	3.605
454.67	4.306
454.88	7.216
455.09	5.056
455.30	4.982
455.51	7.640
455.72	5.059
455.93	3.377
456.14	4.191
456.35	5.039
456.56	3.465
456.78	0.119
456.99	-1.493
457.20	6.866
457.41	5.857
457.62	5.154
457.83	-2.967
458.04	3.549
458.25	1.451
458.46	3.625
458.67	3.603
458.88	2.343
459.09	3.343
459.30	-2.111
459.51	2.121
459.73	5.000
459.94	3.704
460.15	1.329
460.36	6.467
460.57	2.250
460.78	0.729
460.99	4.279
461.20	3.843
461.41	4.526
461.62	3.646
461.83	5.469
462.04	1.628
462.25	3.445
462.46	1.636
462.67	-0.852
462.88	5.113
463.09	4.715
463.30	2.689
463.51	0.690
463.72	1.704
463.93	-0.765
464.15	2.170
464.36	1.339
464.57	0.321
464.78	3.377
464.99	3.482
465.20	2.142
465.41	3.547
465.62	2.652
465.83	2.790
466.04	0.079
466.25	-1.782
466.46	2.782
466.67	3.698
466.88	-0.073
467.09	2.605
467.30	2.044
467.51	5.017
467.72	2.643
467.93	0.442
468.14	1.236
468.35	3.777
468.56	3.766
468.77	2.599
468.98	-0.704
469.19	3.028
469.40	0.519
469.61	1.893
469.82	3.071
470.03	-0.491
470.24	-0.877
470.45	1.950
470.66	3.844
470.87	1.747
471.08	1.084
471.29	1.718
471.50	2.179
471.71	1.932
471.92	-0.443
472.13	1.664
472.34	1.825
472.55	1.717
472.76	3.892
472.97	-2.930
473.18	0.488
473.39	1.628
473.60	1.657
473.81	2.117
474.01	2.222
474.22	1.915
474.43	1.332
474.64	-1.933
474.85	1.988
475.06	0.187
475.27	0.750
475.48	0.602
475.69	1.443
475.90	1.165
476.11	2.957
476.32	1.436
476.53	0.944
476.74	1.617
476.95	1.773
477.16	1.068
477.37	0.533
477.58	1.728
477.79	1.457
478.00	0.420
478.21	1.508
478.41	2.804
478.62	0.197
478.83	3.484
479.04	-0.324
479.25	1.383
479.46	1.182
479.67	1.885
479.88	4.493
480.09	-0.850
480.30	2.317
480.51	1.844
480.72	1.511
480.93	2.166
481.14	1.254
481.34	1.868
481.55	1.219
481.76	0.861
481.97	1.276
482.18	1.456
482.39	1.567
482.60	1.275
482.81	0.910
483.02	2.072
483.23	1.151
483.44	2.068
483.65	0.713
483.85	3.171
484.06	1.413
484.27	1.163
484.48	1.876
484.69	1.606
484.90	1.571
485.11	1.972
485.32	1.284
485.53	2.390
485.73	2.257
485.94	1.228
486.15	1.483
486.36	1.750
486.57	1.572
486.78	2.572
486.99	0.974
487.20	1.015
487.41	0.595
487.61	2.543
487.82	3.652
488.03	3.402
488.24	2.991
488.45	2.252
488.66	2.406
488.87	3.947
489.08	4.068
489.28	4.223
489.49	3.725
489.70	4.862
489.91	3.372
490.12	5.808
490.33	7.115
490.54	7.306
490.74	7.392
490.95	7.035
491.16	7.360
491.37	6.374
491.58	8.886
491.79	10.252
492.00	9.152
492.20	10.656
492.41	11.080
492.62	11.649
492.83	13.752
493.04	14.205
493.25	15.335
493.45	16.349
493.66	16.506
493.87	17.499
494.08	18.307
494.29	19.570
494.50	19.589
494.70	21.239
494.91	23.527
495.12	25.096
495.33	27.409
495.54	26.779
495.75	28.017
495.95	30.152
496.16	31.168
496.37	30.758
496.58	32.069
496.79	32.825
496.99	33.541
497.20	34.620
497.41	35.011
497.62	36.006
497.83	36.975
498.04	36.817
498.24	39.047
498.45	38.392
498.66	39.898
498.87	41.079
499.08	40.830
499.28	40.380
499.49	40.896
499.70	41.137
499.91	41.101
500.12	40.601
500.32	42.407
500.53	44.384
500.74	43.261
500.95	45.077
501.15	44.414
501.36	44.752
501.57	45.864
501.78	46.408
501.99	45.260
502.19	46.809
502.40	47.257
502.61	48.083
502.82	47.878
503.02	46.914
503.23	45.973
503.44	47.524
503.65	45.788
503.86	47.991
504.06	48.223
504.27	46.208
504.48	46.722
504.69	48.351
504.89	47.286
505.10	48.361
505.31	47.084
505.52	47.976
505.72	49.264
505.93	49.497
506.14	49.852
506.35	48.293
506.55	48.245
506.76	49.704
506.97	47.165
507.18	47.880
507.38	47.482
507.59	47.744
507.80	45.392
508.01	46.841
508.21	44.515
508.42	44.542
508.63	43.986
508.84	44.672
509.04	46.576
509.25	45.968
509.46	44.175
509.67	44.113
509.87	44.476
510.08	44.606
510.29	43.716
510.49	43.102
510.70	42.937
510.91	43.442
511.12	44.373
511.32	46.018
511.53	47.587
511.74	48.089
511.94	48.616
512.15	49.347
512.36	50.745
512.57	52.904
512.77	54.147
512.98	53.102
513.19	54.826
513.39	56.813
513.60	59.081
513.81	63.499
514.01	65.723
514.22	64.031
514.43	68.391
514.64	71.192
514.84	70.086
515.05	70.409
515.26	69.916
515.46	69.493
515.67	70.716
515.88	70.861
516.08	72.532
516.29	75.616
516.50	76.425
516.70	76.703
516.91	75.899
517.12	74.190
517.32	74.027
517.53	74.695
517.74	74.927
517.95	72.402
518.15	73.249
518.36	76.513
518.57	73.987
518.77	75.893
518.98	76.676
519.19	76.441
519.39	77.578
519.60	79.219
519.80	76.894
520.01	75.646
520.22	76.019
520.42	76.448
520.63	76.101
520.84	77.650
521.04	77.895
521.25	75.459
521.46	72.189
521.66	73.481
521.87	73.613
522.08	76.203
522.28	79.030
522.49	80.398
522.70	81.763
522.90	82.012
523.11	80.201
523.31	81.214
523.52	81.631
523.73	83.589
523.93	84.068
524.14	83.894
524.35	82.738
524.55	83.457
524.76	80.394
524.97	79.649
525.17	81.164
525.38	80.060
525.58	79.820
525.79	80.474
526.00	85.189
526.20	85.331
526.41	86.570
526.61	83.628
526.82	85.618
527.03	89.656
527.23	89.361
527.44	89.468
527.64	87.882
527.85	88.874
528.06	89.695
528.26	89.500
528.47	90.254
528.68	90.361
528.88	90.378
529.09	90.282
529.29	88.896
529.50	87.868
529.70	87.678
529.91	86.063
530.12	85.889
530.32	86.737
530.53	85.817
530.73	85.604
530.94	86.088
531.15	87.309
531.35	89.690
531.56	86.354
531.76	87.923
531.97	86.883
532.17	85.621
532.38	85.804
532.59	84.971
532.79	86.230
533.00	85.864
533.20	87.158
533.41	88.614
533.61	87.918
533.82	86.316
534.03	87.046
534.23	84.376
534.44	85.974
534.64	85.491
534.85	82.647
535.05	82.707
535.26	84.895
535.46	85.008
535.67	83.914
535.88	85.996
536.08	83.311
536.29	82.320
536.49	81.188
536.70	81.548
536.90	81.262
537.11	83.055
537.31	85.292
537.52	85.990
537.72	83.955
537.93	82.238
538.13	81.458
538.34	82.092
538.55	82.788
538.75	84.593
538.96	83.313
539.16	82.470
539.37	82.118
539.57	83.639
539.78	83.613
539.98	83.604
540.19	81.461
540.39	80.683
540.60	82.498
540.80	81.188
541.01	80.469
541.21	77.193
541.42	77.812
541.62	74.553
541.83	76.554
542.03	76.425
542.24	77.744
542.44	74.305
542.65	75.521
542.85	73.838
543.06	72.255
543.26	71.328
543.47	69.140
543.67	67.968
543.88	66.142
544.08	64.260
544.29	62.136
544.49	61.013
544.70	58.863
544.90	57.419
545.11	55.272
545.31	53.479
545.52	50.903
545.72	47.693
545.93	45.009
546.13	41.665
546.34	39.106
546.54	36.250
546.75	34.293
546.95	31.918
547.15	30.834
547.36	28.252
547.56	25.318
547.77	23.572
547.97	20.930
548.18	19.094
548.38	17.430
548.59	15.547
548.79	13.897
549.00	12.488
549.20	11.348
549.41	10.263
549.61	8.924
549.81	8.004
550.02	6.594
550.22	6.327
550.43	5.596
550.63	5.095
550.84	4.534
551.04	4.025
551.25	3.732
551.45	3.487
551.65	3.256
551.86	3.100
552.06	2.840
552.27	2.438
552.47	2.035
552.68	1.962
552.88	2.134
553.08	2.014
553.29	1.921
553.49	1.673
553.70	1.313
553.90	1.690
554.11	1.032
554.31	1.832
554.51	1.503
554.72	1.009
554.92	1.307
555.13	1.330
555.33	1.062
555.53	1.273
555.74	0.872
555.94	1.122
556.15	0.809
556.35	1.041
556.56	0.766
556.76	0.739
556.96	0.438
557.17	1.091
557.37	0.923
557.58	0.456
557.78	1.000
557.98	0.688
558.19	0.452
558.39	0.462
558.59	0.761
558.80	0.823
559.00	0.629
559.21	0.401
559.41	0.436
559.61	0.486
559.82	0.804
560.02	0.578
560.23	0.520
560.43	0.475
560.63	0.348
560.84	0.682
561.04	0.231
561.24	0.654
561.45	0.634
561.65	0.384
561.85	0.612
562.06	-0.009
562.26	1.137
562.47	0.625
562.67	0.700
562.87	0.660
563.08	0.475
563.28	0.801
563.48	0.702
563.69	0.571
563.89	0.366
564.09	0.477
564.30	0.588
564.50	0.560
564.70	0.575
564.91	0.689
565.11	0.614
565.31	0.655
565.52	0.568
565.72	0.498
565.92	0.501
566.13	0.477
566.33	0.505
566.53	0.478
566.74	1.086
566.94	0.414
567.14	0.916
567.35	0.440
567.55	0.200
567.75	0.626
567.96	0.618
568.16	0.745
568.36	0.498
568.57	0.937
568.77	1.053
568.97	0.705
569.18	0.671
569.38	0.676
569.58	0.485
569.79	0.471
569.99	0.450
570.19	0.368
570.39	0.792
570.60	1.227
570.80	0.456
571.00	0.637
571.21	0.551
571.41	0.242
571.61	0.524
571.82	0.717
572.02	1.218
572.22	1.051
572.42	1.162
572.63	1.066
572.83	1.245
573.03	1.330
573.24	1.336
573.44	1.476
573.64	2.044
573.84	1.809
574.05	2.168
574.25	2.391
574.45	2.786
574.66	3.088
574.86	3.539
575.06	3.616
575.26	4.279
575.47	4.696
575.67	4.958
575.87	5.775
576.07	6.236
576.28	6.805
576.48	7.445
576.68	7.948
576.88	8.522
577.09	9.438
577.29	11.010
577.49	11.945
577.69	12.808
577.90	12.386
578.10	13.679
578.30	13.834
578.50	14.309
578.71	16.089
578.91	17.324
579.11	17.757
579.31	18.405
579.52	19.842
579.72	20.520
579.92	20.874
580.12	22.257
580.33	21.984
580.53	22.407
580.73	23.853
580.93	23.289
581.13	24.150
581.34	23.926
581.54	24.329
581.74	25.057
581.94	25.367
582.15	26.193
582.35	26.767
582.55	27.111
582.75	27.993
582.95	27.936
583.16	28.840
583.36	30.390
583.56	29.522
583.76	30.717
583.96	30.988
584.17	31.603
584.37	32.095
584.57	32.793
584.77	33.045
584.97	34.054
585.18	33.904
585.38	34.860
585.58	34.613
585.78	34.631
585.98	35.193
586.19	36.137
586.39	36.192
586.59	37.692
586.79	38.880
586.99	39.578
587.20	38.832
587.40	39.680
587.60	39.745
587.80	39.762
588.00	38.423
588.20	39.114
588.41	41.160
588.61	42.358
588.81	43.135
589.01	42.309
589.21	40.783
589.41	40.116
589.62	39.354
589.82	38.487
590.02	38.028
590.22	37.974
590.42	37.804
590.62	39.082
590.83	38.646
591.03	39.992
591.23	40.801
591.43	41.221
591.63	42.239
591.83	43.671
592.03	42.011
592.24	41.977
592.44	41.247
592.64	40.312
592.84	40.222
593.04	39.452
593.24	41.001
593.44	41.649
593.65	42.802
593.85	43.739
594.05	44.347
594.25	44.741
594.45	43.608
594.65	43.614
594.85	42.581
595.06	41.998
595.26	41.977
595.46	43.821
595.66	43.532
595.86	44.410
596.06	44.876
596.26	44.905
596.46	43.950
596.66	43.932
596.87	45.306
597.07	44.144
597.27	44.882
597.47	45.679
597.67	46.761
597.87	45.742
598.07	46.298
598.27	46.754
598.47	46.761
598.67	46.290
598.88	47.081
599.08	47.122
599.28	46.995
599.48	46.863
599.68	47.502
599.88	47.871
600.08	48.496
600.28	48.507
600.48	49.496
600.68	50.274
600.88	50.495
601.09	51.021
601.29	52.166
601.49	54.084
601.69	54.039
601.89	55.066
602.09	55.776
602.29	56.106
602.49	56.187
602.69	57.398
602.89	58.326
603.09	59.025
603.29	60.318
603.49	62.317
603.69	63.562
603.90	63.644
604.10	65.173
604.30	66.984
604.50	67.509
604.70	67.185
604.90	66.176
605.10	66.077
605.30	65.987
605.50	67.301
605.70	67.193
605.90	69.743
606.10	70.273
606.30	71.040
606.50	71.836
606.70	72.694
606.90	71.584
607.10	72.110
607.30	71.893
607.50	72.010
607.70	69.633
607.90	68.012
608.10	69.030
608.30	69.863
608.50	68.365
608.70	67.580
608.90	66.005
609.11	65.382
609.31	65.158
609.51	66.835
609.71	65.931
609.91	66.829
610.11	65.933
610.31	67.997
610.51	69.131
610.71	70.452
610.91	71.880
611.11	71.690
611.31	71.757
611.51	69.740
611.71	68.541
611.91	69.454
612.11	70.659
612.31	70.862
612.51	70.798
612.71	70.961
612.91	70.568
613.11	70.175
613.31	69.562
613.51	69.227
613.71	69.858
613.91	70.549
614.11	70.775
614.31	71.145
614.50	69.650
614.70	71.346
614.90	71.836
615.10	73.073
615.30	72.459
615.50	72.299
615.70	72.036
615.90	72.297
616.10	71.958
616.30	71.778
616.50	71.608
616.70	72.642
616.90	73.200
617.10	73.712
617.30	73.513
617.50	72.635
617.70	74.153
617.90	74.739
618.10	76.480
618.30	75.860
618.50	75.787
618.70	76.452
618.90	77.125
619.10	75.991
619.30	77.477
619.49	78.604
619.69	78.726
619.89	76.646
620.09	75.847
620.29	77.015
620.49	78.587
620.69	80.181
620.89	82.804
621.09	84.507
621.29	84.750
621.49	84.342
621.69	83.936
621.89	82.946
622.09	82.087
622.29	80.785
622.48	79.422
622.68	80.669
622.88	79.533
623.08	78.489
623.28	77.681
623.48	76.309
623.68	75.767
623.88	74.482
624.08	74.473
624.28	75.479
624.48	75.947
624.67	75.637
624.87	75.399
625.07	74.407
625.27	73.345
625.47	72.098
625.67	71.594
625.87	71.844
626.07	69.860
626.27	69.667
626.47	67.714
626.66	65.220
626.86	63.583
627.06	60.663
627.26	57.837
627.46	57.130
627.66	57.121
627.86	57.028
628.06	55.102
628.25	54.250
628.45	52.846
628.65	51.984
628.85	51.508
629.05	50.053
629.25	49.119
629.45	49.262
629.65	47.961
629.84	46.962
630.04	45.983
630.24	44.351
630.44	43.007
630.64	40.476
630.84	38.691
631.04	38.117
631.23	36.954
631.43	34.579
631.63	34.221
631.83	33.306
632.03	31.693
632.23	30.586
632.42	30.277
632.62	28.527
632.82	26.941
633.02	25.225
633.22	23.590
633.42	21.600
633.62	20.842
633.81	19.342
634.01	17.938
634.21	16.544
634.41	15.253
634.61	13.136
634.80	12.463
635.00	11.107
635.20	10.185
635.40	8.845
635.60	8.127
635.80	7.313
635.99	6.668
636.19	5.531
636.39	4.819
636.59	3.838
636.79	3.284
636.98	2.773
637.18	2.565
637.38	2.074
637.58	1.887
637.78	1.770
637.97	1.785
638.17	1.460
638.37	1.202
638.57	1.023
638.77	0.882
638.96	0.884
639.16	1.015
639.36	0.580
639.56	0.741
639.76	0.741
639.95	0.803
640.15	0.556
640.35	0.605
640.55	0.581
640.75	0.622
640.94	0.620
641.14	0.485
641.34	0.298
641.54	0.236
641.73	0.608
641.93	0.488
642.13	0.641
642.33	0.465
642.53	0.227
642.72	0.482
642.92	0.614
643.12	0.504
643.32	0.720
643.51	0.390
643.71	0.459
643.91	0.486
644.11	0.423
644.30	0.458
644.50	0.430
644.70	0.234
644.90	0.348
645.09	0.177
645.29	0.297
645.49	0.314
645.69	0.412
645.88	0.151
646.08	0.258
646.28	0.199
646.48	0.223
646.67	0.279
646.87	0.303
647.07	0.240
647.26	0.330
647.46	0.170
647.66	0.022
647.86	0.129
648.05	0.371
648.25	0.104
648.45	0.054
648.65	0.105
648.84	0.494
649.04	0.290
649.24	0.398
649.43	0.136
649.63	0.235
649.83	0.106
650.03	0.205
650.22	0.187
650.42	0.101
650.62	0.286
650.81	0.222
651.01	0.128
651.21	0.095
651.40	0.207
651.60	0.332
651.80	0.077
652.00	0.332
652.19	-0.013
652.39	0.290
652.59	0.091
652.78	0.195
652.98	0.144
653.18	0.139
653.37	0.149
653.57	0.021
653.77	0.296
653.96	0.323
654.16	-0.026
654.36	0.287
654.55	0.022
654.75	0.241
654.95	0.208
655.14	-0.119
655.34	-0.187
655.54	0.096
655.73	0.128
655.93	0.165
656.13	0.135
656.32	0.054
656.52	0.115
656.72	0.182
656.91	0.115
657.11	0.008
657.31	-0.094
657.50	0.094
657.70	-0.065
657.90	0.204
658.09	0.057
658.29	0.150
658.49	-0.128
658.68	0.213
658.88	-0.027
659.07	0.181
659.27	0.005
659.47	0.109
659.66	0.018
659.86	0.013
660.06	0.030
660.25	-0.030
660.45	-0.021
660.64	0.316
660.84	0.156
661.04	-0.120
661.23	0.091
661.43	0.142
661.63	-0.004
661.82	0.113
662.02	0.000
662.21	-0.098
662.41	-0.068
662.61	-0.144
662.80	0.004
663.00	0.243
663.19	0.281
663.39	0.055
663.59	-0.094
663.78	0.052
663.98	-0.114
664.17	0.143
664.37	0.116
664.57	0.039
664.76	-0.051
664.96	-0.158
665.15	0.097
665.35	-0.020
665.55	0.111
665.74	0.171
665.94	-0.036
666.13	0.064
666.33	-0.065
666.53	-0.024
666.72	0.100
666.92	-0.080
667.11	0.047
667.31	-0.051
667.50	0.081
667.70	0.110
667.90	-0.009
668.09	0.082
668.29	0.017
668.48	0.211
668.68	0.281
668.87	-0.044
669.07	0.124
669.26	0.169
669.46	-0.102
669.66	-0.017
669.85	0.236
670.05	0.009
670.24	0.175
670.44	0.055
670.63	0.132
670.83	0.042
671.02	0.225
671.22	0.173
671.42	0.063
671.61	0.009
671.81	0.051
672.00	0.034
672.20	0.093
672.39	0.033
672.59	0.123
672.78	-0.165
672.98	-0.156
673.17	-0.250
673.37	0.078
673.56	0.212
673.76	-0.017
673.95	-0.072
674.15	-0.145
674.34	0.021
674.54	0.098
674.73	0.076
674.93	0.036
675.13	-0.012
675.32	-0.162
675.52	-0.094
675.71	-0.144
675.91	-0.029
676.10	0.045
676.30	-0.040
676.49	0.132
676.69	0.072
676.88	0.033
677.08	-0.185
677.27	0.103
677.47	-0.012
677.66	-0.041
677.86	0.155
678.05	0.012
678.24	-0.076
678.44	-0.067
678.63	-0.039
678.83	-0.115
679.02	0.044
679.22	0.073
679.41	0.020
679.61	-0.202
679.80	-0.198
680.00	-0.078
680.19	-0.009
680.39	-0.004
680.58	0.067
680.78	-0.030
680.97	-0.025
681.17	-0.092
681.36	-0.130
681.56	-0.029
681.75	0.076
681.94	-0.004
682.14	-0.141
682.33	-0.076
682.53	-0.063
682.72	-0.066
682.92	-0.210
683.11	-0.251
683.31	-0.255
683.50	0.064
683.69	-0.016
683.89	0.004
684.08	-0.153
684.28	-0.012
684.47	-0.179
684.67	0.033
684.86	0.218
685.06	0.041
685.25	-0.152
685.44	0.107
685.64	-0.123
685.83	0.193
686.03	-0.016
686.22	0.104
686.42	-0.122
686.61	-0.008
686.80	0.029
687.00	0.025
687.19	-0.021
687.39	-0.162
687.58	0.078
687.77	0.114
687.97	-0.024
688.16	-0.068
688.36	-0.105
688.55	0.004
688.74	-0.021
688.94	-0.155
689.13	-0.069
689.33	0.004
689.52	0.033
689.71	-0.167
689.91	-0.076
690.10	-0.012
690.30	-0.060
690.49	-0.077
690.68	-0.033
690.88	-0.063
691.07	-0.068
691.27	0.043
691.46	-0.155
691.65	-0.048
691.85	-0.118
692.04	-0.151
692.23	0.053
692.43	-0.004
692.62	-0.159
692.82	-0.087
693.01	-0.194
693.20	-0.004
693.40	-0.057
693.59	-0.036
693.78	-0.012
693.98	-0.175
694.17	-0.137
694.36	-0.164
694.56	-0.284
694.75	-0.223
694.94	-0.032
695.14	-0.176
695.33	-0.033
695.53	-0.063
695.72	0.093
695.91	0.038
696.11	0.026
696.30	-0.306
696.49	-0.009
696.69	0.051
696.88	-0.252
697.07	-0.123
697.27	-0.066
697.46	-0.165
697.65	0.073
697.85	0.004
698.04	-0.036
698.23	-0.065
698.43	-0.222
698.62	0.049
698.81	-0.093
699.01	-0.065
699.20	0.046
699.39	-0.034
699.58	-0.013
699.78	0.147
699.97	0.142
700.16	-0.202
700.36	-0.004
700.55	-0.080
700.74	0.095
700.94	-0.099
701.13	0.046
701.32	-0.017
701.52	-0.144
701.71	-0.061
701.90	-0.217
702.09	-0.119
702.29	-0.288
702.48	-0.029
702.67	0.146
702.87	-0.138
703.06	-0.136
703.25	0.000
703.44	-0.012
703.64	-0.238
703.83	-0.074
704.02	0.025
704.22	-0.129
704.41	-0.096
704.60	0.000
704.79	-0.101
704.99	-0.089
705.18	-0.035
705.37	-0.113
705.56	-0.017
705.76	0.034
705.95	0.096
706.14	-0.100
706.33	-0.162
706.53	-0.075
706.72	-0.029
706.91	-0.021
707.11	0.068
707.30	-0.214
707.49	-0.047
707.68	-0.100
707.88	0.070
708.07	-0.052
708.26	0.017
708.45	-0.153
708.64	0.042
708.84	-0.100
709.03	0.067
709.22	0.133
709.41	0.017
709.61	-0.017
709.80	-0.067
709.99	-0.145
710.18	-0.004
710.38	-0.268
710.57	0.022
710.76	-0.018
710.95	-0.013
711.14	-0.054
711.34	0.114
711.53	-0.037
711.72	-0.187
711.91	-0.046
712.11	-0.046
712.30	0.089
712.49	-0.102
712.68	0.000
712.87	0.000
713.07	0.031
713.26	-0.057
713.45	-0.153
713.64	-0.053
713.83	-0.100
714.03	0.039
714.22	-0.138
714.41	-0.130
714.60	-0.254
714.79	-0.164
714.99	0.030
715.18	-0.148
715.37	-0.066
715.56	0.009
715.75	-0.027
715.94	0.215
716.14	0.112
716.33	-0.058
716.52	-0.217
716.71	0.009
716.90	0.163
717.10	-0.090
717.29	0.040
717.48	-0.139
717.67	0.111
717.86	0.000
718.05	-0.190
718.24	0.075
718.44	-0.053
718.63	-0.088
718.82	0.137
719.01	-0.111
719.20	0.049
719.39	-0.054
719.59	-0.230
719.78	0.073
719.97	0.009
720.16	-0.122
720.35	-0.033
720.54	0.088
720.73	-0.033
720.93	0.248
721.12	0.065
721.31	0.051
721.50	-0.037
721.69	0.019
721.88	0.153
722.07	0.019
722.27	-0.042
722.46	-0.099
722.65	-0.038
722.84	-0.081
723.03	0.163
723.22	0.000
723.41	0.260
723.60	0.086
723.79	0.082
723.99	0.106
724.18	-0.093
724.37	-0.075
724.56	0.118
724.75	-0.019
724.94	0.141
725.13	0.141
725.32	-0.029
725.51	0.038
725.71	-0.169
725.90	0.005
726.09	0.076
726.28	0.090
726.47	-0.043
726.66	0.048
726.85	-0.020
727.04	-0.064
727.23	0.115
727.42	0.130
727.61	-0.073
727.81	0.180
728.00	0.125
728.19	0.110
728.38	-0.109
728.57	0.167
728.76	0.053
728.95	0.020
729.14	0.049
729.33	0.160
729.52	0.171
729.71	0.186
729.90	-0.005
730.09	-0.030
730.28	0.181
730.48	-0.051
730.67	0.187
730.86	0.143
731.05	0.105
731.24	0.201
731.43	0.140
731.62	0.313
731.81	0.288
732.00	0.254
732.19	0.219
732.38	0.048
732.57	0.307
732.76	0.381
732.95	0.062
733.14	0.324
733.33	0.326
733.52	0.448
733.71	0.314
733.90	0.178
734.09	0.252
734.28	0.179
734.47	0.306
734.66	0.223
734.85	0.260
735.04	0.240
735.23	0.219
735.42	0.428
735.61	0.417
735.81	0.073
736.00	0.217
736.19	0.172
736.38	0.311
736.57	0.124
736.76	0.197
736.95	0.121
737.14	0.321
737.33	0.522
737.52	0.077
737.71	0.310
737.90	0.263
738.09	-0.021
738.28	0.244
738.47	-0.056
738.66	0.319
738.85	0.256
739.04	0.391
739.22	0.364
739.41	0.469
739.60	0.196
739.79	0.447
739.98	0.406
740.17	0.544
740.36	0.707
740.55	0.537
740.74	0.544
740.93	0.580
741.12	0.598
741.31	0.511
741.50	0.633
741.69	0.737
741.88	0.988
742.07	0.713
742.26	0.892
742.45	0.784
742.64	0.922
742.83	1.239
743.02	0.773
743.21	1.111
743.40	1.400
743.59	1.180
743.78	1.238
743.97	1.192
744.16	1.214
744.34	1.445
744.53	1.373
744.72	1.406
744.91	1.907
745.10	1.353
745.29	1.548
745.48	1.451
745.67	1.269
745.86	1.569
746.05	1.538
746.24	1.429
746.43	1.114
746.62	1.661
746.81	1.136
747.00	1.134
747.18	1.351
747.37	1.006
747.56	1.342
747.75	1.852
747.94	1.176
748.13	1.501
748.32	1.574
748.51	1.394
748.70	1.626
748.89	1.491
749.08	1.546
749.26	1.336
749.45	1.548
749.64	1.896
749.83	1.718
750.02	1.926
750.21	1.921
750.40	2.357
750.59	2.377
750.78	2.667
750.96	2.914
751.15	2.991
751.34	3.303
751.53	3.438
751.72	3.774
751.91	4.148
752.10	4.420
752.29	5.150
752.47	5.095
752.66	5.562
752.85	5.778
753.04	6.522
753.23	7.183
753.42	7.162
753.61	7.617
753.80	8.618
753.98	9.026
754.17	8.785
754.36	9.961
754.55	9.225
754.74	9.368
754.93	9.811
755.12	9.673
755.30	11.096
755.49	11.134
755.68	11.571
755.87	11.490
756.06	12.717
756.25	12.511
756.43	12.934
756.62	12.846
756.81	12.951
757.00	13.359
757.19	13.690
757.38	13.529
757.56	14.504
757.75	14.667
757.94	15.068
758.13	15.382
758.32	16.005
758.51	16.169
758.69	16.484
758.88	16.622
759.07	16.668
759.26	17.346
759.45	16.977
759.63	18.377
759.82	18.823
760.01	19.231
760.20	19.625
760.39	20.558
760.57	19.471
760.76	21.087
760.95	22.201
761.14	21.874
761.33	22.315
761.51	22.776
761.70	23.107
761.89	23.008
762.08	23.534
762.27	23.249
762.45	23.683
762.64	23.665
762.83	24.613
763.02	24.913
763.21	25.388
763.39	26.831
763.58	26.330
763.77	27.854
763.96	27.982
764.14	27.620
764.33	27.235
764.52	28.464
764.71	28.671
764.89	28.718
765.08	28.383
765.27	26.539
765.46	27.631
765.65	28.161
765.83	28.548
766.02	29.175
766.21	27.739
766.40	27.859
766.58	28.920
766.77	30.020
766.96	31.442
767.15	31.279
767.33	33.252
767.52	32.515
767.71	32.464
767.90	31.871
768.08	33.423
768.27	32.265
768.46	30.997
768.64	30.686
768.83	30.041
769.02	33.113
769.21	31.964
769.39	31.125
769.58	31.782
769.77	31.769
769.96	31.644
770.14	30.051
770.33	32.636
770.52	30.428
770.70	30.860
770.89	30.628
771.08	30.308
771.27	29.561
771.45	29.498
771.64	29.667
771.83	29.637
772.01	30.733
772.20	29.250
772.39	29.715
772.57	26.953
772.76	28.410
772.95	26.637
773.14	27.106
773.32	27.237
773.51	27.038
773.70	26.019
773.88	25.043
774.07	25.165
774.26	24.336
774.44	22.664
774.63	22.531
774.82	21.433
775.00	20.245
775.19	20.798
775.38	18.317
775.56	18.029
775.75	18.215
775.94	17.734
776.12	17.329
776.31	18.284
776.50	17.824
776.68	17.778
776.87	18.025
777.06	15.864
777.24	15.928
777.43	15.938
777.62	15.329
777.80	15.238
777.99	13.460
778.18	15.978
778.36	14.339
778.55	15.158
778.74	15.026
778.92	13.592
779.11	15.737
779.29	13.921
779.48	14.589
779.67	14.084
779.85	14.608
780.04	14.738
780.23	16.229
780.41	17.019
780.60	15.496
780.79	16.471
780.97	16.927
781.16	16.185
781.34	16.239
781.53	17.775
781.72	18.212
781.90	17.787
782.09	18.851
782.28	19.079
782.46	19.282
782.65	19.918
782.83	19.843
783.02	20.189
783.21	21.194
783.39	20.202
783.58	22.227
783.76	21.295
783.95	22.271
784.14	21.776
784.32	21.184
784.51	20.937
784.69	20.571
784.88	20.880
785.06	19.964
785.25	20.442
785.44	20.351
785.62	18.619
785.81	20.358
785.99	20.061
786.18	19.889
786.37	19.128
786.55	19.492
786.74	18.846
786.92	18.944
787.11	19.276
787.29	19.394
787.48	18.365
787.67	20.118
787.85	19.252
788.04	18.201
788.22	18.809
788.41	17.907
788.59	18.074
788.78	18.160
788.96	17.462
789.15	17.910
789.34	16.148
789.52	14.803
789.71	16.044
789.89	15.749
790.08	14.721
790.26	14.985
790.45	14.283
790.63	14.179
790.82	14.984
791.00	14.431
791.19	15.917
791.38	16.374
791.56	16.034
791.75	15.556
791.93	16.410
792.12	17.270
792.30	17.315
792.49	17.573
792.67	17.732
792.86	17.369
793.04	18.648
793.23	18.325
793.41	17.203
793.60	19.618
793.78	20.224
793.97	20.608
794.15	21.241
794.34	22.680
794.52	22.497
794.71	22.351
794.89	23.903
795.08	21.260
795.26	22.543
795.45	23.871
795.63	24.189
795.82	24.527
796.00	24.351
796.19	24.941
796.37	26.854
796.56	27.969
796.74	28.528
796.93	29.035
797.11	28.947
797.30	28.098
797.48	29.212
797.67	28.222
797.85	27.790
798.04	28.003
798.22	27.995
798.41	28.185
798.59	29.799
798.77	28.895
798.96	29.671
799.14	30.629
799.33	30.612
799.51	29.997
799.70	29.471
799.88	31.103
800.07	30.075
800.25	30.392
800.44	28.425
800.62	30.088
800.80	31.026
800.99	30.247
801.17	29.254
801.36	31.861
801.54	30.437
801.73	31.114
801.91	30.810
802.10	31.136
802.28	32.237
802.46	31.723
802.65	30.736
802.83	30.084
803.02	30.419
803.20	28.338
803.39	28.801
803.57	30.131
803.75	31.214
803.94	31.739
804.12	32.228
804.31	32.620
804.49	32.645
804.67	34.038
804.86	33.230
805.04	34.116
805.23	37.015
805.41	37.410
805.59	37.234
805.78	37.173
805.96	38.426
806.15	37.114
806.33	38.593
806.51	40.303
806.70	39.510
806.88	41.915
807.07	42.160
807.25	45.686
807.43	44.740
807.62	47.918
807.80	47.420
807.99	45.348
808.17	48.554
808.35	48.387
808.54	49.817
808.72	50.166
808.90	51.302
809.09	52.426
809.27	52.823
809.46	53.944
809.64	53.269
809.82	55.253
810.01	56.230
810.19	58.098
810.37	59.354
810.56	58.184
810.74	60.219
810.92	59.961
811.11	58.733
811.29	59.302
811.48	58.439
811.66	59.512
811.84	59.062
812.03	61.190
812.21	62.137
812.39	59.453
812.58	60.628
812.76	60.221
812.94	59.238
813.13	58.396
813.31	58.830
813.49	56.406
813.68	56.150
813.86	55.620
814.04	52.772
814.23	53.997
814.41	53.120
814.59	52.489
814.78	51.743
814.96	52.907
815.14	50.437
815.33	51.168
815.51	49.869
815.69	48.763
815.87	49.177
816.06	47.526
816.24	47.028
816.42	46.931
816.61	46.273
816.79	43.538
816.97	43.401
817.16	44.826
817.34	43.778
817.52	46.008
817.70	42.675
817.89	42.398
818.07	42.269
818.25	41.064
818.44	41.119
818.62	40.050
818.80	38.654
818.98	39.047
819.17	38.528
819.35	39.970
819.53	38.677
819.72	39.453
819.90	41.127
820.08	40.808
820.26	41.787
820.45	41.937
820.63	40.414
820.81	40.930
820.99	41.480
821.18	41.496
821.36	40.912
821.54	39.288
821.73	39.640
821.91	40.016
822.09	39.211
822.27	38.695
822.46	40.850
822.64	38.206
822.82	38.219
823.00	40.204
823.19	38.962
823.37	36.806
823.55	36.972
823.73	37.285
823.91	37.406
824.10	37.233
824.28	37.107
824.46	37.210
824.64	37.033
824.83	38.639
825.01	37.640
825.19	38.072
825.37	38.738
825.56	37.931
825.74	37.633
825.92	38.302
826.10	36.839
826.28	36.183
826.47	38.350
826.65	37.868
826.83	34.938
827.01	38.217
827.19	37.459
827.38	36.758
827.56	37.986
827.74	37.342
827.92	36.906
828.10	36.472
828.29	35.994
828.47	39.138
828.65	38.008
828.83	37.494
829.01	38.061
829.20	40.041
829.38	39.586
829.56	39.229
829.74	39.258
829.92	40.005
830.10	39.019
830.29	38.619
830.47	40.161
830.65	39.180
830.83	39.902
831.01	39.767
831.20	41.470
831.38	38.611
831.56	37.039
831.74	40.448
831.92	39.897
832.10	39.806
832.29	42.622
832.47	43.103
832.65	42.181
832.83	42.278
833.01	42.663
833.19	43.247
833.37	40.308
833.56	44.021
833.74	43.660
833.92	43.707
834.10	44.315
834.28	44.598
834.46	43.334
834.64	42.695
834.83	41.941
835.01	41.550
835.19	43.161
835.37	42.738
835.55	42.892
835.73	42.963
835.91	44.257
836.09	41.801
836.28	43.112
836.46	41.978
836.64	41.911
836.82	40.207
837.00	39.022
837.18	42.972
837.36	43.089
837.54	43.395
837.72	43.919
837.91	42.499
838.09	42.662
838.27	41.688
838.45	42.332
838.63	44.012
838.81	45.132
838.99	42.410
839.17	45.383
839.35	47.896
839.53	49.052
839.72	46.911
839.90	43.416
840.08	44.745
840.26	47.917
840.44	43.893
840.62	42.097
840.80	42.947
840.98	41.428
841.16	44.618
841.34	43.811
841.52	43.889
841.70	45.270
841.89	46.098
842.07	47.599
842.25	43.635
842.43	45.230
842.61	43.926
842.79	46.241
842.97	45.019
843.15	45.349
843.33	47.031
843.51	46.059
843.69	45.919
843.87	50.000
844.05	49.201
844.23	50.750
844.41	52.472
844.59	53.521
844.77	56.297
844.95	57.277
845.13	57.083
845.31	55.973
845.50	59.781
845.68	59.540
845.86	61.335
846.04	59.289
846.22	56.576
846.40	58.696
846.58	58.327
846.76	62.276
846.94	57.226
847.12	60.478
847.30	56.318
847.48	58.258
847.66	56.375
847.84	60.810
848.02	58.018
848.20	59.660
848.38	61.333
848.56	63.286
848.74	60.851
848.92	65.235
849.10	63.030
849.28	63.733
849.46	62.695
849.64	66.586
849.82	63.528
850.00	67.305
850.18	62.428
850.36	61.882
850.54	59.760
850.72	62.335
850.90	60.794
851.08	59.701
851.26	61.538
851.44	60.727
851.62	59.976
851.80	65.413
851.98	62.662
852.16	64.502
852.34	62.246
852.52	61.298
852.70	59.179
852.87	61.020
853.05	62.602
853.23	60.280
853.41	58.155
853.59	61.089
853.77	65.365
853.95	63.845
854.13	63.570
854.31	63.952
854.49	61.457
854.67	61.968
854.85	63.160
855.03	61.588
855.21	60.893
855.39	61.411
855.57	61.086
855.75	61.283
855.93	58.786
856.11	60.187
856.28	64.192
856.46	63.596
856.64	62.708
856.82	61.791
857.00	63.358
857.18	61.272
857.36	59.992
857.54	61.391
857.72	62.662
857.90	60.161
858.08	61.458
858.26	59.969
858.44	62.414
858.61	58.450
858.79	58.457
858.97	59.624
859.15	58.317
859.33	55.905
859.51	57.345
859.69	56.360
859.87	55.662
860.05	55.389
860.23	54.575
860.40	52.465
860.58	51.791
860.76	51.837
860.94	50.900
861.12	50.381
861.30	50.725
861.48	49.456
861.66	48.243
861.84	48.448
862.01	48.272
862.19	50.418
862.37	49.806
862.55	48.404
862.73	48.070
862.91	49.811
863.09	50.056
863.27	47.847
863.44	48.708
863.62	49.046
863.80	48.790
863.98	51.101
864.16	49.785
864.34	49.684
864.52	53.031
864.69	52.172
864.87	52.563
865.05	53.336
865.23	53.149
865.41	57.472
865.59	58.052
865.76	56.218
865.94	59.104
866.12	57.389
866.30	58.776
866.48	60.221
866.66	55.046
866.83	58.147
867.01	59.663
867.19	58.186
867.37	58.067
867.55	58.555
867.73	55.085
867.90	56.773
868.08	56.342
868.26	57.952
868.44	60.482
868.62	59.398
868.79	59.045
868.97	59.088
869.15	60.451
869.33	60.883
869.51	61.476
869.69	60.766
869.86	58.037
870.04	59.233
870.22	55.729
870.40	59.203
870.57	57.617
870.75	55.125
870.93	56.297
871.11	53.300
871.29	52.869
871.46	49.739
871.64	52.047
871.82	50.466
872.00	50.907
872.18	51.687
872.35	47.252
872.53	47.938
872.71	47.499
872.89	47.370
873.06	48.156
873.24	45.458
873.42	45.125
873.60	45.320
873.77	45.007
873.95	44.321
874.13	40.425
874.31	41.313
874.49	42.038
874.66	42.446
874.84	40.354
875.02	39.038
875.20	41.559
875.37	39.377
875.55	39.305
875.73	39.887
875.91	38.503
876.08	39.026
876.26	41.032
876.44	42.519
876.61	43.017
876.79	40.664
876.97	40.584
877.15	40.150
877.32	40.111
877.50	39.227
877.68	38.893
877.86	36.458
878.03	36.564
878.21	37.399
878.39	40.136
878.56	39.556
878.74	39.947
878.92	39.298
879.10	41.838
879.27	40.944
879.45	37.784
879.63	40.785
879.80	41.584
879.98	42.596
880.16	43.127
880.34	42.750
880.51	43.786
880.69	44.330
880.87	44.839
881.04	45.000
881.22	47.867
881.40	44.811
881.57	47.418
881.75	49.464
881.93	52.009
882.10	51.042
882.28	51.795
882.46	50.639
882.63	50.993
882.81	53.068
882.99	55.113
883.16	53.137
883.34	52.970
883.52	55.090
883.69	57.474
883.87	56.640
884.05	58.900
884.22	59.344
884.40	59.367
884.58	61.232
884.75	63.128
884.93	64.984
885.11	63.571
885.28	62.641
885.46	63.448
885.64	63.774
885.81	63.739
885.99	64.492
886.17	63.365
886.34	66.926
886.52	64.649
886.70	66.078
886.87	62.731
887.05	59.097
887.22	61.067
887.40	60.381
887.58	58.597
887.75	58.550
887.93	58.691
888.11	57.133
888.28	58.019
888.46	57.846
888.63	53.735
888.81	54.991
888.99	51.768
889.16	51.049
889.34	54.055
889.51	52.926
889.69	52.315
889.87	52.741
890.04	53.501
890.22	52.165
890.39	50.628
890.57	51.856
890.75	51.430
890.92	52.842
891.10	51.930
891.27	53.676
891.45	50.806
891.63	50.603
891.80	50.751
891.98	48.288
892.15	47.515
892.33	47.604
892.51	48.984
892.68	50.215
892.86	50.635
893.03	51.171
893.21	52.595
893.38	53.159
893.56	51.338
893.74	53.454
893.91	55.403
894.09	52.168
894.26	52.647
894.44	54.705
894.61	55.858
894.79	54.752
894.96	55.319
895.14	54.487
895.32	55.426
895.49	57.522
895.67	57.519
895.84	57.304
896.02	54.079
896.19	55.223
896.37	53.298
896.54	53.684
896.72	54.502
896.89	50.894
897.07	49.722
897.25	52.626
897.42	51.289
897.60	51.184
897.77	54.080
897.95	52.405
898.12	55.867
898.30	54.938
898.47	55.564
898.65	51.538
898.82	52.740
899.00	52.995
899.17	49.112
899.35	49.790
899.52	51.524
899.70	48.055
899.87	48.760
900.05	50.231
900.22	47.919
900.40	48.723
900.57	46.911
900.75	48.098
900.92	47.496
901.10	47.668
901.27	45.084
901.45	45.283
901.62	45.458
901.80	40.993
901.97	43.535
902.15	44.550
902.32	43.540
902.50	45.082
902.67	44.648
902.85	44.500
903.02	46.524
903.20	46.475
903.37	47.763
903.54	46.115
903.72	44.840
903.89	44.930
904.07	47.052
904.24	48.180
904.42	47.368
904.59	46.828
904.77	48.370
904.94	45.971
905.12	47.199
905.29	46.251
905.47	43.554
905.64	43.718
905.81	44.878
905.99	47.978
906.16	47.391
906.34	47.479
906.51	47.833
906.69	50.816
906.86	49.499
907.03	50.262
907.21	51.987
907.38	51.595
907.56	46.714
907.73	48.797
907.91	52.061
908.08	48.386
908.25	46.837
908.43	51.698
908.60	51.205
908.78	49.237
908.95	50.608
909.13	54.129
909.30	54.047
909.47	53.746
909.65	52.603
909.82	48.863
910.00	51.047
910.17	49.625
910.34	49.061
910.52	48.957
910.69	49.876
910.87	51.111
911.04	52.159
911.21	51.301
911.39	48.949
911.56	51.502
911.73	46.138
911.91	52.341
912.08	47.154
912.26	47.582
912.43	47.270
912.60	50.400
912.78	48.302
912.95	50.045
913.13	48.402
913.30	47.816
913.47	51.424
913.65	47.504
913.82	47.563
913.99	43.907
914.17	44.254
914.34	43.927
914.51	45.887
914.69	41.978
914.86	41.907
915.03	42.935
915.21	38.599
915.38	38.992
915.56	41.956
915.73	46.145
915.90	40.879
916.08	45.072
916.25	43.538
916.42	40.956
916.60	42.443
916.77	44.312
916.94	39.595
917.12	40.065
917.29	42.320
917.46	44.654
917.64	42.495
917.81	40.778
917.98	44.382
918.16	44.526
918.33	46.060
918.50	45.518
918.67	42.282
918.85	46.343
919.02	44.690
919.19	46.051
919.37	43.901
919.54	46.354
919.71	40.759
919.89	45.172
920.06	42.816
920.23	39.627
920.41	41.215
920.58	43.279
920.75	41.261
920.92	40.315
921.10	44.195
921.27	39.492
921.44	45.008
921.62	44.196
921.79	43.322
921.96	45.061
922.13	45.355
922.31	41.788
922.48	44.418
922.65	42.992
922.82	42.506
923.00	40.231
923.17	45.975
923.34	41.693
923.52	43.118
923.69	39.175
923.86	36.523
924.03	44.934
924.21	46.149
924.38	44.185
924.55	44.121
924.72	42.404
924.90	47.547
925.07	48.981
925.24	46.393
925.41	48.051
925.59	46.040
925.76	43.854
925.93	45.000
926.10	44.566
926.28	49.642
926.45	48.643
926.62	46.399
926.79	45.599
926.96	46.629
927.14	45.250
927.31	44.114
927.48	53.081
927.65	44.397
927.83	46.223
928.00	44.685
928.17	50.037
928.34	47.481
928.51	47.865
928.69	50.527
928.86	52.190
929.03	47.063
929.20	51.149
929.37	53.304
929.55	53.905
929.72	51.855
929.89	53.297
930.06	47.395
930.23	51.341
930.41	50.527
930.58	51.024
930.75	51.498
930.92	49.502
931.09	51.918
931.27	53.718
931.44	52.845
931.61	52.248
931.78	48.110
931.95	50.449
932.12	49.541
932.30	49.431
932.47	47.868
932.64	49.547
932.81	46.497
932.98	49.955
933.16	48.736
933.33	54.078
933.50	53.650
933.67	52.023
933.84	53.888
934.01	48.373
934.18	48.289
934.36	60.171
934.53	51.518
934.70	50.292
934.87	50.900
935.04	53.169
935.21	49.574
935.38	51.541
935.56	49.161
935.73	46.269
935.90	49.565
936.07	43.776
936.24	50.849
936.41	53.728
936.58	53.196
936.76	50.051
936.93	50.983
937.10	55.679
937.27	50.442
937.44	56.555
937.61	51.377
937.78	58.030
937.95	54.620
938.13	55.776
938.30	55.165
938.47	53.272
938.64	54.270
938.81	56.624
938.98	56.494
939.15	53.333
939.32	54.925
939.49	50.323
939.66	53.254
939.84	60.848
940.01	57.551
940.18	60.321
940.35	52.126
940.52	50.686
940.69	47.290
940.86	53.468
941.03	50.656
941.20	43.062
941.37	53.964
941.54	58.164
941.71	49.310
941.89	52.846
942.06	49.015
942.23	52.905
942.40	54.598
942.57	50.811
942.74	62.939
942.91	55.909
943.08	55.964
943.25	55.485
943.42	52.247
943.59	53.211
943.76	55.331
943.93	51.160
944.10	57.804
944.27	47.989
944.44	55.814
944.61	59.285
944.79	56.056
944.96	64.933
945.13	49.804
945.30	60.705
945.47	55.205
945.64	61.001
945.81	59.003
945.98	56.690
946.15	54.021
946.32	53.825
946.49	58.785
946.66	58.525
946.83	53.159
947.00	56.778
947.17	56.278
947.34	49.927
947.51	48.851
947.68	54.101
947.85	51.502
948.02	53.214
948.19	54.054
948.36	63.113
948.53	55.017
948.70	57.348
948.87	58.621
949.04	52.077
949.21	48.680
949.38	46.429
949.55	45.534
949.72	55.848
949.89	45.156
950.06	45.326
950.23	52.525
950.40	41.459
950.57	43.423
950.74	53.357
950.91	48.162
951.08	46.864
951.25	50.380
951.42	52.174
951.59	49.729
951.76	48.283
951.93	57.554
952.10	50.362
952.27	53.728
952.44	44.286
952.61	52.903
952.77	52.182
952.94	55.285
953.11	49.333
953.28	45.472
953.45	57.927
953.62	48.639
953.79	56.111
953.96	46.875
954.13	52.682
954.30	56.653
954.47	46.018
954.64	56.346
954.81	56.539
954.98	48.987
955.15	54.600
955.32	51.494
955.49	61.252
955.65	54.000
955.82	52.546
955.99	51.337
956.16	65.286
956.33	53.877
956.50	53.891
956.67	47.082
956.84	52.247
957.01	56.415
957.18	53.678
957.35	53.226
957.52	51.807
957.68	58.036
957.85	53.830
958.02	52.381
958.19	66.829
958.36	66.114
958.53	63.802
958.70	59.101
958.87	58.837
959.04	62.308
959.21	52.423
959.37	75.065
959.54	65.977
959.71	53.555
959.88	62.907
960.05	65.321
960.22	63.592
960.39	60.628
960.56	60.965
960.72	59.667
960.89	64.544
961.06	61.458
961.23	58.050
961.40	51.812
961.57	68.519
961.74	60.474
961.90	56.364
962.07	63.713
962.24	54.753
962.41	62.252
962.58	56.624
962.75	62.552
962.92	64.924
963.08	69.888
963.25	67.462
963.42	63.070
963.59	62.288
963.76	82.167
963.93	52.982
964.10	79.302
964.26	57.322
964.43	68.822
964.60	71.765
964.77	64.815
964.94	63.208
965.10	55.992
965.27	58.581
965.44	62.415
965.61	79.891
965.78	68.409
965.95	61.337
966.11	72.120
966.28	65.097
966.45	60.773
966.62	62.981
966.79	69.841
966.95	73.756
967.12	70.270
967.29	68.707
967.46	70.362
967.63	74.255
967.79	77.657
967.96	71.903
968.13	59.649
968.30	68.898
968.47	68.125
968.63	71.855
968.80	70.942
968.97	82.460
969.14	71.683
969.31	65.812
969.47	70.420
969.64	67.535
969.81	65.539
969.98	65.931
970.14	73.753
970.31	70.652
970.48	64.062
970.65	75.765
970.81	70.573
970.98	59.315
971.15	55.556
971.32	46.667
971.48	62.637
971.65	71.968
971.82	60.497
971.99	73.280
972.15	64.608
972.32	53.286
972.49	46.695
972.66	51.116
972.82	50.339
972.99	51.529
973.16	51.923
973.33	60.190
973.49	48.111
973.66	61.640
973.83	47.704
974.00	47.523
974.16	55.000
974.33	62.291
974.50	64.734
974.67	58.519
974.83	67.554
975.00	43.780
975.17	54.943
975.33	55.841
975.50	55.376
975.67	59.677
975.84	42.735
976.00	53.176
976.17	44.706
976.34	50.251
976.50	58.564
976.67	45.642
976.84	43.878
977.00	54.610
977.17	47.324
977.34	44.258
977.50	42.359
977.67	42.237
977.84	46.991
978.01	45.550
978.17	59.950
978.34	51.613
978.51	38.741
978.67	50.917
978.84	46.667
979.01	49.528
979.17	45.474
979.34	45.596
979.51	47.500
979.67	50.243
979.84	53.444
980.01	44.191
980.17	54.310
980.34	57.292
980.51	43.880
980.67	39.221
980.84	37.732
981.01	42.172
981.17	37.451
981.34	38.737
981.50	46.875
981.67	43.921
981.84	44.743
982.00	35.309
982.17	39.949
982.34	36.916
982.50	51.626
982.67	41.085
982.84	47.430
983.00	50.392
983.17	41.743
983.33	39.333
983.50	42.825
983.67	46.696
983.83	34.298
984.00	46.394
984.17	30.687
984.33	44.750
984.50	31.290
984.66	55.155
984.83	42.949
985.00	34.222
985.16	41.519
985.33	41.818
985.49	45.435
985.66	48.747
985.83	45.697
985.99	51.760
986.16	42.074
986.32	35.944
986.49	50.000
986.66	45.330
986.82	50.000
986.99	36.830
987.15	45.327
987.32	50.708
987.49	40.498
987.65	40.326
987.82	40.979
987.98	46.009
988.15	44.784
988.31	45.390
988.48	47.630
988.65	50.265
988.81	46.085
988.98	38.856
989.14	46.445
989.31	39.130
989.47	44.712
989.64	42.342
989.80	40.845
989.97	47.835
990.14	42.766
990.30	50.481
990.47	46.845
990.63	47.332
990.80	55.052
990.96	45.622
991.13	42.857
991.29	50.594
991.46	54.394
991.62	47.907
991.79	52.192
991.95	60.271
992.12	55.556
992.29	58.333
992.45	61.697
992.62	50.897
992.78	50.314
992.95	60.048
993.11	51.454
993.28	61.369
993.44	50.109
993.61	46.680
993.77	54.450
993.94	44.851
994.10	53.376
994.27	58.924
994.43	59.916
994.60	58.750
994.76	60.046
994.93	43.964
995.09	64.420
995.26	54.612
995.42	59.611
995.59	64.380
995.75	56.250
995.92	48.706
996.08	54.118
996.25	59.259
996.41	42.647
996.58	50.457
996.74	49.257
996.91	42.037
997.07	57.073
997.23	53.186
997.40	52.539
997.56	50.701
997.73	64.750
997.89	50.559
998.06	44.934
998.22	61.916
998.39	52.941
998.55	54.273
998.72	51.636
998.88	60.500
999.05	53.396
999.21	40.811
999.37	51.330
999.54	49.495
999.70	42.232
999.87	59.799
1000.03	52.968
1000.20	51.683
1000.36	46.043
1000.52	46.653
1000.69	57.374
1000.85	43.413
1001.02	53.196
1001.18	43.212
1001.35	54.565
1001.51	45.212
1001.67	43.430
1001.84	49.156
1002.00	44.538
1002.17	55.734
1002.33	45.199
1002.50	58.465
1002.66	51.185
1002.82	39.698
1002.99	53.867
1003.15	58.897
1003.32	56.892
1003.48	50.239
1003.64	39.949
1003.81	52.528
1003.97	41.553
1004.14	56.398
1004.30	47.174
1004.46	59.269
1004.63	57.359
1004.79	50.789
1004.95	40.103
1005.12	48.352
1005.28	51.832
1005.45	41.475
1005.61	63.570
1005.77	53.202
1005.94	52.242
1006.10	57.179
1006.26	50.600
1006.43	41.232
1006.59	49.719
1006.76	56.464
1006.92	59.059
1007.08	65.072
1007.25	50.110
1007.41	40.767
1007.57	50.980
1007.74	48.363
1007.90	48.969
1008.06	52.604
1008.23	55.128
1008.39	47.280
1008.55	55.069
1008.72	47.132
1008.88	50.000
1009.04	56.803
1009.21	57.279
1009.37	58.684
1009.53	52.758
1009.70	62.903
1009.86	79.630
1010.02	48.064
1010.19	56.286
1010.35	63.717
1010.51	72.076
1010.68	69.949
1010.84	62.467
1011.00	61.026
1011.17	60.665
1011.33	60.880
1011.49	66.949
1011.66	67.949
1011.82	61.125
1011.98	63.444
1012.14	58.356
1012.31	53.982
1012.47	60.614
1012.63	59.770
1012.80	60.582
1012.96	63.369
1013.12	60.278
1013.29	62.050
1013.45	75.196
1013.61	62.274
1013.77	61.240
1013.94	62.141
1014.10	57.576
1014.26	59.158
1014.43	63.736
1014.59	67.391
1014.75	63.212
1014.91	54.462
1015.08	50.605
1015.24	59.302
1015.40	51.000
1015.56	53.684
1015.73	54.074
1015.89	63.710
1016.05	48.578
1016.21	68.123
1016.38	45.308
1016.54	60.526
1016.70	63.235
1016.86	63.506
1017.03	54.223
1017.19	63.342
1017.35	56.132
1017.51	68.493
1017.68	63.896
1017.84	58.353
1018.00	55.352
1018.16	68.333
1018.33	58.427
1018.49	54.603
1018.65	59.401
1018.81	57.187
1018.97	51.558
1019.14	55.041
1019.30	54.958
1019.46	70.103
1019.62	49.609
1019.79	59.875
1019.95	58.612
1020.11	61.371
1020.27	58.033
1020.43	58.246
1020.60	60.606
1020.76	80.899
1020.92	70.868
1021.08	78.289
1021.24	63.043
1021.41	66.667
1021.57	62.644
1021.73	75.738
1021.89	70.066
1022.05	56.446
1022.21	60.278
1022.38	60.571
1022.54	54.155
1022.70	50.333
1022.86	68.300
1023.02	55.362
1023.19	67.434
1023.35	45.659
1023.51	43.269
1023.67	63.372
1023.83	64.122
1023.99	55.634
1024.16	62.302
1024.32	56.958
1024.48	53.546
1024.64	53.974
1024.80	63.830
1024.96	67.901
1025.12	65.831
1025.29	57.597
1025.45	46.786
1025.61	55.484
1025.77	55.596
1025.93	72.050
1026.09	47.876
1026.26	63.514
1026.42	66.803
1026.58	62.630
1026.74	63.922
1026.90	53.172
1027.06	57.756
1027.22	60.403
1027.38	48.936
1027.55	68.932
1027.71	60.465
1027.87	60.678
1028.03	67.729
1028.19	56.949
1028.35	48.708
1028.51	72.727
1028.67	65.399
1028.83	74.026
1029.00	67.931
1029.16	75.625
1029.32	59.023
1029.48	58.203
1029.64	64.590
1029.80	67.480
1029.96	85.185
1030.12	62.637
1030.28	69.825
1030.44	87.302
1030.61	65.401
1030.77	71.311
1030.93	67.460
1031.09	64.314
1031.25	85.787
1031.41	67.871
1031.57	83.122
1031.73	68.750
1031.89	65.724
1032.05	62.921
1032.21	66.531
1032.37	55.396
1032.53	82.397
1032.69	84.120
1032.86	59.615
1033.02	59.801
1033.18	67.692
1033.34	60.215
1033.50	73.575
1033.66	74.340
1033.82	70.330
1033.98	53.879
1034.14	84.793
1034.30	78.244
1034.46	71.429
1034.62	56.078
1034.78	77.574
1034.94	59.567
1035.10	68.932
1035.26	62.199
1035.42	75.166
1035.58	63.899
1035.74	80.498
1035.90	93.171
1036.06	59.551
1036.22	55.344
1036.38	76.652
1036.54	74.180
1036.70	69.167
1036.86	74.742
1037.02	76.557
1037.18	66.190
1037.34	63.889
1037.50	76.214
1037.66	54.211
1037.82	67.708
1037.98	53.405
1038.14	64.088
1038.30	68.846
1038.46	67.266
1038.62	53.052
1038.78	84.135
1038.94	72.414
1039.10	67.943
1039.26	84.914
1039.42	68.349
1039.58	82.249
1039.74	60.669
1039.90	59.000
1040.06	70.244
>>>>>End Processed Spectral Data<<<<<
