SpectraSuite Data File
++++++++++++++++++++++++++++++++++++
Date: Wed Jan 25 18:01:33 EET 2017
User: TheoProf
Dark Spectrum Present: Yes
Reference Spectrum Present: Yes
Number of Sampled Component Spectra: 1
Spectrometers: USB4C02475
Integration Time (usec): 64136 (USB4C02475)
Spectra Averaged: 1 (USB4C02475)
Boxcar Smoothing: 0 (USB4C02475)
Correct for Electrical Dark: No (USB4C02475)
Strobe/Lamp Enabled: No (USB4C02475)
Correct for Detector Non-linearity: No (USB4C02475)
Correct for Stray Light: No (USB4C02475)
Number of Pixels in Processed Spectrum: 3648
>>>>>Begin Processed Spectral Data<<<<<
344.91	383.333
345.13	383.333
345.35	383.333
345.57	100.000
345.79	500.000
346.00	73.684
346.22	175.000
346.44	-68.966
346.66	560.000
346.87	186.207
347.09	-0.000
347.31	52.174
347.53	23.529
347.74	34.211
347.96	103.571
348.18	233.333
348.40	410.526
348.61	15.385
348.83	-27.273
349.05	103.279
349.27	79.167
349.48	188.235
349.70	176.471
349.92	25.806
350.14	80.328
350.35	100.000
350.57	66.667
350.79	17.647
351.01	80.000
351.22	-30.000
351.44	15.385
351.66	-470.000
351.87	127.778
352.09	425.000
352.31	-14.286
352.53	101.667
352.74	134.483
352.96	148.000
353.18	43.902
353.40	1050.000
353.61	69.048
353.83	9.091
354.05	260.000
354.26	13.636
354.48	64.286
354.70	73.684
354.92	57.692
355.13	155.172
355.35	52.830
355.57	90.196
355.78	22.581
356.00	25.000
356.22	93.151
356.44	45.313
356.65	28.846
356.87	146.154
357.09	120.000
357.30	33.673
357.52	166.667
357.74	0.000
357.95	79.167
358.17	79.545
358.39	32.558
358.60	137.500
358.82	130.769
359.04	0.000
359.26	27.451
359.47	11.111
359.69	36.634
359.91	75.000
360.12	-40.000
360.34	197.297
360.56	-125.000
360.77	-64.103
360.99	67.241
361.21	32.143
361.42	19.149
361.64	412.500
361.86	50.000
362.07	-31.707
362.29	22.727
362.51	48.810
362.72	-53.846
362.94	78.462
363.16	102.273
363.37	73.437
363.59	-60.000
363.81	-43.750
364.02	59.184
364.24	53.846
364.46	80.769
364.67	150.000
364.89	-45.455
365.11	25.926
365.32	39.286
365.54	-42.105
365.76	10.345
365.97	48.485
366.19	-18.182
366.41	-35.714
366.62	22.857
366.84	-157.143
367.05	18.182
367.27	6.061
367.49	-19.355
367.70	-40.000
367.92	18.421
368.14	11.905
368.35	-23.529
368.57	69.620
368.79	69.811
369.00	40.816
369.22	70.000
369.43	62.500
369.65	12.500
369.87	114.286
370.08	-19.444
370.30	-20.000
370.51	-160.000
370.73	62.121
370.95	3.846
371.16	81.481
371.38	150.000
371.60	-766.667
371.81	0.000
372.03	94.203
372.24	-775.000
372.46	86.207
372.68	-70.833
372.89	-19.298
373.11	-1.695
373.32	-25.926
373.54	57.895
373.76	69.388
373.97	124.324
374.19	15.385
374.40	44.828
374.62	28.125
374.84	98.000
375.05	59.259
375.27	32.000
375.48	182.353
375.70	75.862
375.92	51.923
376.13	63.333
376.35	-12.698
376.56	-128.571
376.78	115.909
376.99	47.692
377.21	13.953
377.43	211.538
377.64	58.442
377.86	157.143
378.07	-880.000
378.29	11.364
378.51	72.840
378.72	63.014
378.94	114.286
379.15	31.579
379.37	60.000
379.58	143.750
379.80	97.917
380.01	0.000
380.23	-15.556
380.45	-18.421
380.66	15.942
380.88	104.545
381.09	6.250
381.31	68.750
381.52	121.739
381.74	118.947
381.95	-140.000
382.17	4.545
382.39	-5.172
382.60	90.476
382.82	120.000
383.03	43.750
383.25	11.250
383.46	-52.632
383.68	-29.545
383.89	32.381
384.11	37.288
384.32	74.419
384.54	28.283
384.76	17.391
384.97	74.510
385.19	-4.167
385.40	41.935
385.62	-18.966
385.83	33.333
386.05	61.667
386.26	29.630
386.48	-16.393
386.69	23.457
386.91	0.000
387.12	20.000
387.34	23.077
387.55	-61.111
387.77	78.082
387.98	52.941
388.20	59.211
388.41	-51.429
388.63	24.000
388.84	57.353
389.06	40.909
389.27	57.426
389.49	43.077
389.70	43.137
389.92	-14.286
390.13	31.633
390.35	48.529
390.56	86.275
390.78	3.409
390.99	69.014
391.21	52.941
391.42	-2.469
391.64	-20.000
391.85	69.444
392.07	-125.000
392.28	-19.672
392.50	11.111
392.71	-19.355
392.93	13.793
393.14	2.830
393.36	0.000
393.57	29.032
393.79	-6500.000
394.00	21.569
394.22	43.056
394.43	37.634
394.65	87.097
394.86	45.192
395.08	22.785
395.29	34.118
395.50	45.122
395.72	-61.290
395.93	37.594
396.15	33.871
396.36	24.138
396.58	33.913
396.79	2.703
397.01	21.875
397.22	-61.194
397.44	20.168
397.65	53.333
397.87	81.081
398.08	-5.983
398.29	67.647
398.51	40.000
398.72	25.000
398.94	41.228
399.15	-4.950
399.37	58.955
399.58	15.957
399.80	16.667
400.01	33.333
400.22	0.000
400.44	0.000
400.65	46.324
400.87	25.862
401.08	28.030
401.30	-34.722
401.51	62.903
401.72	19.355
401.94	44.828
402.15	31.034
402.37	58.491
402.58	15.278
402.80	39.726
403.01	16.049
403.22	23.158
403.44	35.606
403.65	80.882
403.87	50.714
404.08	7.692
404.30	13.846
404.51	44.068
404.72	37.589
404.94	12.214
405.15	37.162
405.37	37.795
405.58	-55.714
405.79	-25.263
406.01	18.301
406.22	4.000
406.44	29.078
406.65	16.250
406.86	27.815
407.08	10.185
407.29	6.579
407.51	37.821
407.72	15.972
407.93	36.184
408.15	14.110
408.36	23.358
408.58	24.324
408.79	23.239
409.00	24.516
409.22	19.126
409.43	13.475
409.64	4.687
409.86	-1.852
410.07	4.430
410.29	21.495
410.50	-16.949
410.71	15.033
410.93	26.203
411.14	19.632
411.35	14.379
411.57	-25.904
411.78	12.426
412.00	35.664
412.21	-10.959
412.42	-9.581
412.64	-15.909
412.85	14.035
413.06	11.009
413.28	-2.667
413.49	30.435
413.70	9.605
413.92	22.759
414.13	-55.357
414.34	34.031
414.56	-14.724
414.77	23.529
414.98	13.089
415.20	-5.202
415.41	2.222
415.63	3.509
415.84	5.392
416.05	28.696
416.27	9.091
416.48	21.721
416.69	18.919
416.91	11.111
417.12	21.354
417.33	10.549
417.55	13.372
417.76	4.598
417.97	-1.463
418.19	30.072
418.40	4.396
418.61	5.462
418.83	0.905
419.04	13.063
419.25	26.230
419.46	22.707
419.68	18.095
419.89	-8.556
420.10	18.410
420.32	9.163
420.53	9.639
420.74	6.923
420.96	19.522
421.17	20.553
421.38	22.605
421.60	4.583
421.81	1.667
422.02	16.475
422.23	-6.639
422.45	8.148
422.66	11.250
422.87	7.634
423.09	-12.775
423.30	4.630
423.51	8.856
423.73	11.688
423.94	14.187
424.15	11.969
424.36	17.813
424.58	16.955
424.79	11.221
425.00	3.169
425.22	25.000
425.43	14.855
425.64	15.260
425.85	2.024
426.07	11.041
426.28	10.274
426.49	-8.487
426.71	-0.585
426.92	5.917
427.13	4.950
427.34	11.212
427.56	8.333
427.77	2.344
427.98	-6.855
428.19	-2.703
428.41	5.461
428.62	-0.342
428.83	11.978
429.04	1.863
429.26	11.799
429.47	13.846
429.68	4.308
429.89	2.083
430.11	11.458
430.32	11.082
430.53	15.952
430.74	8.385
430.96	13.089
431.17	9.972
431.38	9.355
431.59	-11.009
431.81	0.000
432.02	-7.022
432.23	6.364
432.44	8.718
432.66	13.966
432.87	-2.128
433.08	0.000
433.29	2.792
433.51	4.657
433.72	-0.468
433.93	5.361
434.14	10.798
434.35	2.906
434.57	7.547
434.78	3.373
434.99	18.319
435.20	22.524
435.42	28.074
435.63	32.288
435.84	27.055
436.05	26.279
436.26	11.776
436.48	11.028
436.69	10.000
436.90	5.182
437.11	12.291
437.32	14.196
437.54	9.979
437.75	13.320
437.96	5.389
438.17	6.205
438.38	24.096
438.60	11.567
438.81	9.438
439.02	6.324
439.23	8.519
439.44	1.953
439.66	8.571
439.87	11.822
440.08	15.083
440.29	10.078
440.50	3.107
440.72	2.733
440.93	5.348
441.14	3.633
441.35	6.977
441.56	2.139
441.77	10.673
441.99	9.784
442.20	2.509
442.41	12.343
442.62	12.069
442.83	10.135
443.04	7.038
443.26	7.974
443.47	9.173
443.68	9.259
443.89	2.026
444.10	7.527
444.31	-0.363
444.53	11.018
444.74	7.120
444.95	6.329
445.16	5.705
445.37	2.589
445.58	7.742
445.80	5.008
446.01	6.947
446.22	4.444
446.43	8.896
446.64	3.828
446.85	11.450
447.06	11.807
447.28	7.895
447.49	11.478
447.70	9.021
447.91	6.184
448.12	10.000
448.33	5.379
448.54	6.028
448.76	6.970
448.97	5.924
449.18	6.624
449.39	6.738
449.60	13.483
449.81	5.060
450.02	9.027
450.23	15.755
450.45	5.789
450.66	9.560
450.87	9.756
451.08	12.129
451.29	7.510
451.50	2.635
451.71	6.013
451.92	9.559
452.13	15.672
452.35	14.267
452.56	23.096
452.77	37.161
452.98	43.425
453.19	50.064
453.40	58.793
453.61	65.906
453.82	72.021
454.03	76.442
454.25	83.613
454.46	93.191
454.67	94.976
454.88	83.093
455.09	93.933
455.30	92.588
455.51	90.764
455.72	91.412
455.93	96.883
456.14	92.317
456.35	90.594
456.56	104.579
456.78	97.625
456.99	99.378
457.20	92.248
457.41	102.603
457.62	94.648
457.83	94.505
458.04	88.935
458.25	99.793
458.46	90.937
458.67	92.113
458.88	102.236
459.09	98.176
459.30	101.000
459.51	98.834
459.73	103.191
459.94	94.639
460.15	103.681
460.36	99.517
460.57	96.760
460.78	97.177
460.99	93.275
461.20	97.182
461.41	96.328
461.62	96.080
461.83	100.434
462.04	94.087
462.25	92.580
462.46	104.455
462.67	95.315
462.88	99.133
463.09	107.651
463.30	97.311
463.51	103.020
463.72	100.937
463.93	104.078
464.15	107.378
464.36	94.252
464.57	101.767
464.78	93.245
464.99	91.783
465.20	96.824
465.41	101.434
465.62	95.054
465.83	97.496
466.04	97.402
466.25	96.669
466.46	95.038
466.67	95.710
466.88	95.547
467.09	95.408
467.30	95.504
467.51	95.380
467.72	100.904
467.93	100.295
468.14	99.038
468.35	97.614
468.56	95.065
468.77	94.022
468.98	93.214
469.19	98.297
469.40	96.236
469.61	95.773
469.82	102.273
470.03	98.037
470.24	98.747
470.45	96.216
470.66	96.099
470.87	99.211
471.08	105.238
471.29	104.028
471.50	99.553
471.71	103.977
471.92	101.607
472.13	100.444
472.34	102.966
472.55	100.107
472.76	106.148
472.97	97.179
473.18	104.504
473.39	99.746
473.60	101.506
473.81	99.711
474.01	99.704
474.22	100.814
474.43	101.628
474.64	98.563
474.85	95.741
475.06	94.665
475.27	100.563
475.48	96.111
475.69	95.221
475.90	102.656
476.11	105.360
476.32	106.623
476.53	101.573
476.74	99.641
476.95	100.709
477.16	102.093
477.37	102.752
477.58	102.486
477.79	102.443
478.00	98.781
478.21	95.355
478.41	99.800
478.62	98.780
478.83	97.918
479.04	102.149
479.25	98.419
479.46	99.961
479.67	100.667
479.88	98.278
480.09	104.444
480.30	107.474
480.51	102.950
480.72	102.158
480.93	98.522
481.14	93.663
481.34	95.903
481.55	100.406
481.76	97.382
481.97	100.000
482.18	97.484
482.39	96.290
482.60	93.497
482.81	100.438
483.02	99.933
483.23	98.980
483.44	100.872
483.65	100.356
483.85	100.824
484.06	99.184
484.27	99.694
484.48	102.970
484.69	102.410
484.90	103.142
485.11	103.575
485.32	101.223
485.53	102.359
485.73	103.165
485.94	104.297
486.15	101.198
486.36	101.205
486.57	101.186
486.78	102.904
486.99	101.271
487.20	99.818
487.41	98.862
487.61	99.461
487.82	102.969
488.03	94.588
488.24	100.708
488.45	99.656
488.66	100.262
488.87	97.912
489.08	99.739
489.28	103.627
489.49	103.046
489.70	100.395
489.91	102.123
490.12	100.316
490.33	101.020
490.54	101.771
490.74	103.335
490.95	106.533
491.16	103.974
491.37	103.739
491.58	98.299
491.79	100.218
492.00	101.222
492.20	103.386
492.41	103.850
492.62	102.953
492.83	103.502
493.04	107.955
493.25	102.233
493.45	104.623
493.66	103.270
493.87	101.867
494.08	100.064
494.29	101.977
494.50	101.114
494.70	101.686
494.91	102.791
495.12	105.374
495.33	103.873
495.54	101.257
495.75	103.051
495.95	101.900
496.16	99.866
496.37	102.137
496.58	100.899
496.79	100.408
496.99	101.291
497.20	101.929
497.41	100.889
497.62	101.714
497.83	101.103
498.04	103.812
498.24	102.180
498.45	102.709
498.66	105.365
498.87	101.778
499.08	98.988
499.28	101.428
499.49	97.356
499.70	98.947
499.91	95.382
500.12	97.287
500.32	96.732
500.53	98.467
500.74	96.385
500.95	99.112
501.15	98.154
501.36	100.257
501.57	98.559
501.78	98.979
501.99	93.746
502.19	88.923
502.40	80.645
502.61	70.415
502.82	62.358
503.02	52.894
503.23	44.947
503.44	39.702
503.65	31.912
503.86	24.180
504.06	19.126
504.27	13.657
504.48	9.518
504.69	5.973
504.89	4.792
505.10	4.098
505.31	3.138
505.52	2.729
505.72	1.850
505.93	3.165
506.14	2.093
506.35	1.805
506.55	1.924
506.76	2.043
506.97	2.015
507.18	1.830
507.38	1.997
507.59	1.359
507.80	1.447
508.01	2.337
508.21	0.817
508.42	1.637
508.63	1.425
508.84	1.817
509.04	1.181
509.25	1.176
509.46	1.745
509.67	1.239
509.87	1.316
510.08	1.768
510.29	1.760
510.49	1.120
510.70	0.392
510.91	1.556
511.12	0.703
511.32	0.953
511.53	1.366
511.74	2.187
511.94	1.558
512.15	1.168
512.36	1.132
512.57	1.531
512.77	0.648
512.98	0.837
513.19	1.024
513.39	0.716
513.60	1.182
513.81	0.546
514.01	0.949
514.22	1.443
514.43	1.423
514.64	1.183
514.84	1.015
515.05	0.503
515.26	0.934
515.46	1.182
515.67	1.122
515.88	0.378
516.08	0.840
516.29	1.098
516.50	1.780
516.70	0.795
516.91	1.598
517.12	0.389
517.32	1.026
517.53	1.033
517.74	1.144
517.95	1.058
518.15	1.060
518.36	1.213
518.57	1.110
518.77	0.609
518.98	1.736
519.19	0.699
519.39	0.684
519.60	1.063
519.80	1.162
520.01	0.737
520.22	1.313
520.42	1.145
520.63	0.786
520.84	0.568
521.04	0.813
521.25	0.343
521.46	0.770
521.66	0.638
521.87	0.348
522.08	0.875
522.28	0.674
522.49	0.981
522.70	0.576
522.90	0.699
523.11	0.879
523.31	0.689
523.52	0.765
523.73	0.779
523.93	0.580
524.14	0.367
524.35	0.925
524.55	1.440
524.76	0.613
524.97	1.705
525.17	0.516
525.38	0.742
525.58	0.630
525.79	0.799
526.00	0.700
526.20	0.967
526.41	0.987
526.61	0.000
526.82	0.727
527.03	0.359
527.23	0.978
527.44	0.729
527.64	0.325
527.85	0.566
528.06	0.507
528.26	0.166
528.47	1.199
528.68	0.127
528.88	0.100
529.09	0.729
529.29	1.118
529.50	0.718
529.70	0.522
529.91	0.303
530.12	0.818
530.32	0.688
530.53	0.194
530.73	0.921
530.94	0.474
531.15	0.966
531.35	1.204
531.56	0.618
531.76	0.693
531.97	1.401
532.17	0.707
532.38	0.499
532.59	1.005
532.79	0.964
533.00	1.311
533.20	1.005
533.41	0.433
533.61	0.755
533.82	1.092
534.03	1.101
534.23	0.694
534.44	0.887
534.64	0.514
534.85	1.499
535.05	0.738
535.26	0.721
535.46	1.052
535.67	0.688
535.88	1.844
536.08	1.313
536.29	0.766
536.49	0.992
536.70	1.131
536.90	0.821
537.11	1.104
537.31	0.635
537.52	1.052
537.72	1.325
537.93	1.140
538.13	1.527
538.34	1.772
538.55	1.550
538.75	1.354
538.96	1.595
539.16	1.067
539.37	1.845
539.57	1.749
539.78	1.530
539.98	1.817
540.19	1.838
540.39	2.314
540.60	2.385
540.80	2.198
541.01	2.312
541.21	2.911
541.42	2.893
541.62	3.200
541.83	3.849
542.03	3.352
542.24	3.676
542.44	4.610
542.65	4.158
542.85	4.486
543.06	4.548
543.26	4.272
543.47	3.872
543.67	4.672
543.88	4.465
544.08	4.371
544.29	4.649
544.49	4.429
544.70	3.925
544.90	3.736
545.11	4.398
545.31	4.015
545.52	4.617
545.72	5.286
545.93	6.299
546.13	5.706
546.34	5.572
546.54	4.822
546.75	4.325
546.95	4.216
547.15	3.764
547.36	3.614
547.56	3.232
547.77	3.020
547.97	2.775
548.18	2.898
548.38	3.118
548.59	2.509
548.79	3.039
549.00	2.355
549.20	2.233
549.41	2.656
549.61	2.556
549.81	2.509
550.02	2.126
550.22	2.433
550.43	2.222
550.63	2.575
550.84	2.163
551.04	2.894
551.25	2.536
551.45	2.617
551.65	2.889
551.86	2.408
552.06	3.068
552.27	3.598
552.47	2.759
552.68	3.141
552.88	2.836
553.08	3.118
553.29	2.839
553.49	3.040
553.70	3.337
553.90	3.840
554.11	3.649
554.31	5.714
554.51	6.809
554.72	9.860
554.92	14.995
555.13	22.818
555.33	31.802
555.53	41.775
555.74	52.202
555.94	57.838
556.15	64.248
556.35	68.837
556.56	72.811
556.76	77.453
556.96	83.438
557.17	86.723
557.37	91.283
557.58	94.372
557.78	98.291
557.98	97.505
558.19	97.714
558.39	100.209
558.59	100.527
558.80	100.823
559.00	102.443
559.21	102.414
559.41	102.543
559.61	102.255
559.82	101.422
560.02	99.227
560.23	97.035
560.43	98.192
560.63	98.728
560.84	99.804
561.04	100.838
561.24	99.665
561.45	103.405
561.65	102.418
561.85	101.749
562.06	101.341
562.26	103.513
562.47	101.115
562.67	101.964
562.87	102.388
563.08	100.844
563.28	103.329
563.48	101.534
563.69	100.716
563.89	102.288
564.09	103.632
564.30	102.687
564.50	101.501
564.70	101.653
564.91	99.920
565.11	97.836
565.31	99.582
565.52	98.770
565.72	101.257
565.92	100.652
566.13	101.266
566.33	102.961
566.53	102.147
566.74	101.838
566.94	102.609
567.14	104.147
567.35	102.600
567.55	101.697
567.75	101.077
567.96	102.348
568.16	100.883
568.36	98.665
568.57	98.340
568.77	99.394
568.97	99.810
569.18	101.045
569.38	102.260
569.58	102.763
569.79	101.304
569.99	100.641
570.19	100.812
570.39	99.657
570.60	99.386
570.80	103.176
571.00	104.754
571.21	103.321
571.41	105.617
571.61	106.859
571.82	103.477
572.02	107.611
572.22	107.951
572.42	107.782
572.63	107.026
572.83	108.080
573.03	105.617
573.24	106.999
573.44	106.744
573.64	103.737
573.84	102.157
574.05	100.740
574.25	101.047
574.45	101.371
574.66	101.950
574.86	102.163
575.06	106.122
575.26	106.727
575.47	106.671
575.67	103.217
575.87	101.754
576.07	99.240
576.28	98.392
576.48	95.481
576.68	97.121
576.88	100.526
577.09	103.501
577.29	105.843
577.49	105.561
577.69	106.427
577.90	104.336
578.10	104.152
578.30	101.811
578.50	100.997
578.71	101.784
578.91	103.650
579.11	103.681
579.31	102.663
579.52	104.600
579.72	104.511
579.92	102.579
580.12	104.039
580.33	107.052
580.53	106.334
580.73	106.612
580.93	106.273
581.13	103.206
581.34	100.756
581.54	99.436
581.74	98.388
581.94	98.341
582.15	98.635
582.35	98.989
582.55	98.308
582.75	99.178
582.95	100.644
583.16	101.954
583.36	101.501
583.56	100.668
583.76	101.794
583.96	104.301
584.17	103.923
584.37	105.206
584.57	104.877
584.77	104.726
584.97	104.889
585.18	103.476
585.38	102.096
585.58	100.682
585.78	99.617
585.98	100.305
586.19	101.133
586.39	101.392
586.59	104.212
586.79	104.438
586.99	104.836
587.20	105.267
587.40	105.125
587.60	104.016
587.80	104.329
588.00	104.389
588.20	103.205
588.41	107.307
588.61	105.711
588.81	105.630
589.01	104.546
589.21	102.320
589.41	101.525
589.62	99.553
589.82	99.993
590.02	99.961
590.22	97.941
590.42	97.330
590.62	99.755
590.83	98.860
591.03	101.260
591.23	101.980
591.43	103.454
591.63	104.174
591.83	106.155
592.03	103.780
592.24	104.173
592.44	102.070
592.64	101.796
592.84	99.832
593.04	98.078
593.24	98.385
593.44	100.335
593.65	100.231
593.85	100.779
594.05	103.870
594.25	106.288
594.45	107.412
594.65	106.605
594.85	104.025
595.06	102.344
595.26	100.159
595.46	102.076
595.66	102.166
595.86	102.852
596.06	101.912
596.26	99.709
596.46	100.761
596.66	101.296
596.87	102.127
597.07	102.209
597.27	102.903
597.47	102.130
597.67	103.934
597.87	102.977
598.07	102.493
598.27	105.467
598.47	104.844
598.67	105.309
598.88	103.499
599.08	102.300
599.28	103.756
599.48	102.557
599.68	103.320
599.88	100.715
600.08	102.142
600.28	101.897
600.48	103.722
600.68	101.412
600.88	100.772
601.09	100.099
601.29	100.474
601.49	100.535
601.69	99.889
601.89	99.567
602.09	98.822
602.29	100.264
602.49	99.571
602.69	99.592
602.89	100.832
603.09	100.219
603.29	99.284
603.49	100.649
603.69	99.828
603.90	99.423
604.10	99.825
604.30	99.886
604.50	101.514
604.70	101.486
604.90	99.528
605.10	99.525
605.30	98.145
605.50	97.662
605.70	97.796
605.90	100.241
606.10	102.991
606.30	104.626
606.50	104.862
606.70	106.944
606.90	106.802
607.10	105.394
607.30	104.694
607.50	103.552
607.70	102.193
607.90	102.996
608.10	103.297
608.30	104.926
608.50	103.208
608.70	100.599
608.90	99.533
609.11	99.249
609.31	98.729
609.51	98.755
609.71	98.926
609.91	98.892
610.11	99.406
610.31	99.663
610.51	99.598
610.71	99.167
610.91	97.778
611.11	98.639
611.31	97.704
611.51	95.610
611.71	94.045
611.91	93.036
612.11	91.395
612.31	87.128
612.51	79.730
612.71	72.129
612.91	63.996
613.11	55.062
613.31	48.183
613.51	42.567
613.71	38.912
613.91	34.922
614.11	30.097
614.31	24.901
614.50	19.990
614.70	16.137
614.90	12.329
615.10	9.298
615.30	7.225
615.50	5.632
615.70	4.385
615.90	3.523
616.10	2.879
616.30	2.453
616.50	2.055
616.70	2.008
616.90	1.647
617.10	1.706
617.30	1.515
617.50	1.467
617.70	1.480
617.90	1.216
618.10	1.431
618.30	1.423
618.50	1.292
618.70	1.628
618.90	1.355
619.10	0.945
619.30	1.228
619.49	1.084
619.69	1.450
619.89	1.159
620.09	1.351
620.29	1.151
620.49	1.098
620.69	1.146
620.89	0.973
621.09	0.922
621.29	1.240
621.49	1.055
621.69	1.204
621.89	0.784
622.09	0.859
622.29	1.026
622.48	1.005
622.68	0.806
622.88	1.109
623.08	0.785
623.28	0.631
623.48	0.754
623.68	0.720
623.88	0.875
624.08	0.872
624.28	0.943
624.48	0.834
624.67	0.787
624.87	0.790
625.07	1.126
625.27	0.869
625.47	0.871
625.67	0.619
625.87	0.699
626.07	0.775
626.27	0.753
626.47	0.982
626.66	0.734
626.86	0.765
627.06	0.798
627.26	0.500
627.46	0.623
627.66	0.902
627.86	0.660
628.06	0.525
628.25	0.723
628.45	0.467
628.65	0.579
628.85	0.800
629.05	0.628
629.25	0.431
629.45	0.736
629.65	0.716
629.84	0.743
630.04	0.875
630.24	0.676
630.44	1.121
630.64	0.762
630.84	0.698
631.04	1.037
631.23	0.813
631.43	0.807
631.63	0.722
631.83	0.700
632.03	0.801
632.23	0.518
632.42	0.587
632.62	0.774
632.82	0.374
633.02	0.536
633.22	0.529
633.42	0.697
633.62	0.685
633.81	0.780
634.01	0.419
634.21	0.570
634.41	0.760
634.61	0.454
634.80	0.433
635.00	0.741
635.20	0.670
635.40	0.614
635.60	0.587
635.80	0.420
635.99	0.938
636.19	0.671
636.39	0.630
636.59	0.775
636.79	1.001
636.98	0.570
637.18	0.696
637.38	0.535
637.58	0.707
637.78	0.701
637.97	0.736
638.17	0.568
638.37	0.828
638.57	0.688
638.77	0.692
638.96	0.719
639.16	0.673
639.36	0.610
639.56	0.565
639.76	0.788
639.95	0.773
640.15	0.658
640.35	0.698
640.55	0.589
640.75	0.795
640.94	0.848
641.14	0.507
641.34	0.747
641.54	0.816
641.73	0.656
641.93	0.646
642.13	0.968
642.33	0.912
642.53	0.471
642.72	0.841
642.92	0.712
643.12	0.845
643.32	0.883
643.51	0.672
643.71	0.828
643.91	0.914
644.11	0.913
644.30	0.973
644.50	0.751
644.70	0.775
644.90	0.755
645.09	0.895
645.29	1.151
645.49	0.954
645.69	0.713
645.88	1.007
646.08	0.856
646.28	0.864
646.48	0.953
646.67	0.959
646.87	0.897
647.07	1.097
647.26	0.760
647.46	0.927
647.66	0.992
647.86	0.972
648.05	1.218
648.25	1.301
648.45	0.844
648.65	1.103
648.84	1.180
649.04	1.053
649.24	1.300
649.43	1.298
649.63	1.245
649.83	1.069
650.03	1.290
650.22	1.306
650.42	1.434
650.62	1.479
650.81	1.548
651.01	1.506
651.21	1.404
651.40	1.416
651.60	1.531
651.80	1.471
652.00	1.788
652.19	1.519
652.39	1.929
652.59	1.620
652.78	1.712
652.98	1.944
653.18	1.902
653.37	1.939
653.57	1.835
653.77	2.169
653.96	2.305
654.16	2.242
654.36	2.527
654.55	2.574
654.75	2.953
654.95	3.328
655.14	3.757
655.34	4.626
655.54	5.801
655.73	8.077
655.93	11.066
656.13	14.484
656.32	20.012
656.52	25.903
656.72	32.720
656.91	39.381
657.11	46.803
657.31	53.456
657.50	59.213
657.70	62.876
657.90	66.926
658.09	71.160
658.29	74.748
658.49	79.495
658.68	83.801
658.88	88.388
659.07	92.594
659.27	95.641
659.47	97.180
659.66	98.981
659.86	100.338
660.06	101.818
660.25	101.258
660.45	102.431
660.64	102.920
660.84	101.631
661.04	101.366
661.23	99.806
661.43	99.875
661.63	100.030
661.82	98.897
662.02	99.775
662.21	100.683
662.41	101.513
662.61	100.161
662.80	99.748
663.00	98.461
663.19	98.183
663.39	97.176
663.59	100.485
663.78	102.268
663.98	102.442
664.17	104.005
664.37	103.746
664.57	100.590
664.76	100.597
664.96	99.477
665.15	98.999
665.35	97.408
665.55	97.754
665.74	98.029
665.94	97.800
666.13	99.839
666.33	100.101
666.53	101.809
666.72	101.886
666.92	103.607
667.11	103.242
667.31	100.607
667.50	101.510
667.70	101.670
667.90	102.216
668.09	103.607
668.29	104.296
668.48	103.907
668.68	104.293
668.87	104.582
669.07	104.784
669.26	104.690
669.46	105.376
669.66	106.369
669.85	107.353
670.05	107.144
670.24	106.333
670.44	105.767
670.63	104.817
670.83	101.642
671.02	100.371
671.22	98.503
671.42	97.597
671.61	96.952
671.81	97.569
672.00	97.541
672.20	97.859
672.39	97.007
672.59	95.383
672.78	95.811
672.98	95.977
673.17	96.012
673.37	96.650
673.56	96.722
673.76	98.862
673.95	100.939
674.15	100.540
674.34	101.458
674.54	100.131
674.73	98.285
674.93	98.020
675.13	98.776
675.32	98.920
675.52	98.909
675.71	100.828
675.91	99.951
676.10	101.025
676.30	100.004
676.49	100.729
676.69	100.273
676.88	101.008
677.08	100.510
677.27	100.132
677.47	99.493
677.66	100.394
677.86	100.923
678.05	101.807
678.24	104.225
678.44	104.591
678.63	103.547
678.83	102.826
679.02	103.452
679.22	102.310
679.41	102.838
679.61	104.533
679.80	106.804
680.00	106.539
680.19	106.225
680.39	105.561
680.58	102.618
680.78	101.773
680.97	100.228
681.17	99.125
681.36	100.738
681.56	100.208
681.75	101.236
681.94	101.528
682.14	101.606
682.33	101.154
682.53	101.198
682.72	99.547
682.92	100.762
683.11	100.924
683.31	100.206
683.50	98.353
683.69	97.827
683.89	98.564
684.08	98.506
684.28	99.741
684.47	100.859
684.67	100.965
684.86	101.865
685.06	100.672
685.25	100.390
685.44	98.810
685.64	99.116
685.83	99.026
686.03	100.008
686.22	100.269
686.42	100.701
686.61	101.035
686.80	102.945
687.00	102.705
687.19	103.760
687.39	104.155
687.58	102.478
687.77	103.236
687.97	102.195
688.16	101.540
688.36	102.611
688.55	103.096
688.74	103.132
688.94	104.419
689.13	105.329
689.33	103.783
689.52	104.288
689.71	104.276
689.91	103.696
690.10	101.712
690.30	99.972
690.49	97.660
690.68	98.783
690.88	98.152
691.07	99.466
691.27	99.783
691.46	101.138
691.65	102.680
691.85	103.436
692.04	104.166
692.23	103.274
692.43	103.539
692.62	102.297
692.82	100.868
693.01	98.085
693.20	97.214
693.40	97.848
693.59	98.654
693.78	99.083
693.98	99.007
694.17	99.274
694.36	97.024
694.56	98.874
694.75	98.939
694.94	97.512
695.14	97.176
695.33	96.632
695.53	97.380
695.72	99.115
695.91	101.162
696.11	101.209
696.30	101.867
696.49	103.262
696.69	102.845
696.88	102.204
697.07	102.987
697.27	102.108
697.46	102.065
697.65	102.223
697.85	101.132
698.04	100.729
698.23	100.863
698.43	100.105
698.62	100.977
698.81	98.944
699.01	98.698
699.20	98.453
699.39	99.833
699.58	99.925
699.78	99.812
699.97	99.796
700.16	100.557
700.36	100.047
700.55	99.916
700.74	99.719
700.94	99.275
701.13	99.520
701.32	97.769
701.52	98.133
701.71	97.217
701.90	97.552
702.09	97.346
702.29	97.868
702.48	96.644
702.67	97.385
702.87	98.032
703.06	96.540
703.25	96.577
703.44	97.012
703.64	97.663
703.83	97.517
704.02	98.309
704.22	100.631
704.41	102.262
704.60	103.032
704.79	103.190
704.99	103.819
705.18	103.191
705.37	103.261
705.56	103.139
705.76	103.775
705.95	102.516
706.14	102.998
706.33	101.685
706.53	102.168
706.72	101.668
706.91	100.778
707.11	99.408
707.30	99.051
707.49	97.994
707.68	98.346
707.88	97.846
708.07	98.223
708.26	98.498
708.45	99.379
708.64	99.591
708.84	100.021
709.03	98.457
709.22	98.858
709.41	98.579
709.61	98.773
709.80	99.682
709.99	99.707
710.18	99.178
710.38	97.377
710.57	96.407
710.76	96.670
710.95	96.514
711.14	95.030
711.34	97.499
711.53	97.508
711.72	97.971
711.91	97.758
712.11	96.674
712.30	95.938
712.49	93.944
712.68	91.708
712.87	89.177
713.07	87.845
713.26	83.637
713.45	78.210
713.64	73.404
713.83	66.520
714.03	61.402
714.22	55.382
714.41	49.905
714.60	44.613
714.79	40.126
714.99	34.526
715.18	30.292
715.37	25.672
715.56	20.724
715.75	16.802
715.94	13.819
716.14	10.617
716.33	8.414
716.52	6.704
716.71	5.412
716.90	4.667
717.10	3.780
717.29	3.193
717.48	2.499
717.67	2.139
717.86	1.870
718.05	1.530
718.24	1.585
718.44	1.404
718.63	1.322
718.82	1.440
719.01	1.072
719.20	1.018
719.39	1.099
719.59	0.934
719.78	1.213
719.97	1.042
720.16	0.941
720.35	1.024
720.54	1.211
720.73	0.676
720.93	1.043
721.12	1.042
721.31	1.015
721.50	1.060
721.69	0.915
721.88	0.823
722.07	0.905
722.27	0.890
722.46	0.630
722.65	0.877
722.84	0.703
723.03	0.799
723.22	0.790
723.41	0.659
723.60	0.828
723.79	0.648
723.99	0.715
724.18	0.703
724.37	0.549
724.56	0.647
724.75	0.753
724.94	0.654
725.13	0.705
725.32	0.375
725.51	0.640
725.71	0.584
725.90	0.533
726.09	0.633
726.28	0.660
726.47	0.406
726.66	0.653
726.85	0.604
727.04	0.804
727.23	0.595
727.42	0.543
727.61	0.375
727.81	0.580
728.00	0.626
728.19	0.509
728.38	0.478
728.57	0.521
728.76	0.418
728.95	0.595
729.14	0.601
729.33	0.436
729.52	0.749
729.71	0.391
729.90	0.482
730.09	0.335
730.28	0.331
730.48	0.387
730.67	0.565
730.86	0.532
731.05	0.303
731.24	0.539
731.43	0.200
731.62	0.362
731.81	0.581
732.00	0.421
732.19	0.528
732.38	0.337
732.57	0.451
732.76	0.588
732.95	0.411
733.14	0.570
733.33	0.415
733.52	0.553
733.71	0.608
733.90	0.376
734.09	0.396
734.28	0.108
734.47	0.426
734.66	0.425
734.85	0.229
735.04	0.309
735.23	0.472
735.42	0.244
735.61	0.462
735.81	0.164
736.00	0.125
736.19	0.120
736.38	0.300
736.57	0.270
736.76	0.219
736.95	0.225
737.14	0.251
737.33	0.803
737.52	0.211
737.71	0.212
737.90	0.392
738.09	0.138
738.28	0.098
738.47	0.209
738.66	0.125
738.85	0.157
739.04	0.012
739.22	0.329
739.41	0.322
739.60	0.231
739.79	0.279
739.98	0.235
740.17	0.255
740.36	0.365
740.55	0.449
740.74	0.170
740.93	0.444
741.12	0.145
741.31	0.261
741.50	0.422
741.69	0.240
741.88	0.221
742.07	0.274
742.26	0.481
742.45	0.144
742.64	0.311
742.83	0.419
743.02	0.230
743.21	0.351
743.40	0.496
743.59	0.350
743.78	0.316
743.97	0.039
744.16	0.298
744.34	0.268
744.53	0.529
744.72	0.293
744.91	0.454
745.10	0.337
745.29	0.071
745.48	0.372
745.67	0.146
745.86	0.404
746.05	0.413
746.24	0.329
746.43	0.291
746.62	0.235
746.81	0.161
747.00	0.163
747.18	0.416
747.37	0.237
747.56	0.518
747.75	0.207
747.94	0.145
748.13	0.425
748.32	0.281
748.51	0.083
748.70	0.389
748.89	0.056
749.08	0.193
749.26	0.281
749.45	0.185
749.64	0.403
749.83	0.007
750.02	0.230
750.21	0.101
750.40	0.182
750.59	0.341
750.78	0.230
750.96	0.550
751.15	0.352
751.34	0.456
751.53	0.174
751.72	-0.038
751.91	0.244
752.10	-0.111
752.29	0.313
752.47	0.060
752.66	0.449
752.85	0.184
753.04	0.293
753.23	0.233
753.42	0.421
753.61	0.303
753.80	0.521
753.98	0.335
754.17	0.411
754.36	0.454
754.55	-0.008
754.74	0.456
754.93	0.139
755.12	0.114
755.30	0.349
755.49	0.182
755.68	0.425
755.87	0.320
756.06	0.385
756.25	-0.035
756.43	0.555
756.62	0.173
756.81	0.242
757.00	0.658
757.19	0.018
757.38	0.637
757.56	0.447
757.75	0.357
757.94	0.476
758.13	0.193
758.32	0.924
758.51	0.385
758.69	0.099
758.88	0.536
759.07	0.454
759.26	0.071
759.45	0.434
759.63	0.704
759.82	0.749
760.01	0.895
760.20	-0.185
760.39	0.711
760.57	0.276
760.76	0.767
760.95	0.893
761.14	0.483
761.33	0.217
761.51	-0.058
761.70	0.383
761.89	0.389
762.08	0.347
762.27	1.167
762.45	0.164
762.64	0.821
762.83	0.804
763.02	-0.111
763.21	0.240
763.39	0.292
763.58	-0.128
763.77	-0.038
763.96	-0.039
764.14	0.637
764.33	-0.091
764.52	0.543
764.71	0.347
764.89	0.173
765.08	0.560
765.27	-0.454
765.46	0.480
765.65	0.530
765.83	0.419
766.02	0.162
766.21	0.282
766.40	-0.067
766.58	0.439
766.77	0.427
766.96	0.478
767.15	0.253
767.33	0.825
767.52	0.803
767.71	0.734
767.90	-0.392
768.08	1.202
768.27	-0.048
768.46	0.338
768.64	-0.244
768.83	0.444
769.02	0.593
769.21	-0.387
769.39	0.289
769.58	-0.051
769.77	1.284
769.96	0.785
770.14	0.427
770.33	0.489
770.52	1.032
770.70	-0.563
770.89	-0.017
771.08	-0.392
771.27	0.671
771.45	0.548
771.64	0.762
771.83	0.696
772.01	-0.035
772.20	0.641
772.39	0.683
772.57	-0.417
772.76	0.274
772.95	0.438
773.14	0.965
773.32	-0.055
773.51	-0.815
773.70	0.660
773.88	-0.618
774.07	-0.136
774.26	1.044
774.44	0.306
774.63	1.072
774.82	-0.039
775.00	0.773
775.19	1.369
775.38	0.245
775.56	0.210
775.75	-0.038
775.94	-0.374
776.12	0.959
776.31	0.281
776.50	1.756
776.68	0.785
776.87	1.831
777.06	0.203
777.24	-0.142
777.43	0.267
777.62	0.698
777.80	-0.511
777.99	0.269
778.18	1.502
778.36	0.418
778.55	0.041
778.74	0.475
778.92	0.187
779.11	0.477
779.29	-0.102
779.48	0.641
779.67	0.595
779.85	0.604
780.04	0.082
780.23	1.252
780.41	0.508
780.60	-0.285
780.79	0.996
780.97	1.142
781.16	0.865
781.34	-0.119
781.53	-0.179
781.72	0.372
781.90	-0.195
782.09	0.738
782.28	0.641
782.46	0.687
782.65	0.157
782.83	0.282
783.02	-0.702
783.21	0.672
783.39	0.833
783.58	-0.232
783.76	0.401
783.95	-0.172
784.14	0.261
784.32	0.129
784.51	0.127
784.69	0.162
784.88	0.291
785.06	-0.127
785.25	0.677
785.44	-0.195
785.62	0.193
785.81	0.307
785.99	0.253
786.18	-0.203
786.37	0.260
786.55	1.147
786.74	-0.076
786.92	0.000
787.11	0.811
787.29	-0.295
787.48	-0.776
787.67	0.670
787.85	0.292
788.04	0.832
788.22	0.732
788.41	0.841
788.59	0.357
788.78	0.357
788.96	-0.039
789.15	-0.019
789.34	0.019
789.52	-0.598
789.71	0.114
789.89	0.549
790.08	0.147
790.26	0.054
790.45	-0.388
790.63	0.250
790.82	-0.053
791.00	0.700
791.19	0.673
791.38	0.614
791.56	0.214
791.75	0.088
791.93	0.874
792.12	0.346
792.30	-0.418
792.49	0.154
792.67	0.483
792.86	0.351
793.04	0.593
793.23	-0.276
793.41	-0.311
793.60	0.850
793.78	0.690
793.97	0.156
794.15	0.661
794.34	1.167
794.52	0.502
794.71	-0.460
794.89	0.534
795.08	0.097
795.26	-0.439
795.45	-0.047
795.63	0.326
795.82	0.775
796.00	0.356
796.19	0.458
796.37	-0.015
796.56	0.134
796.74	0.682
796.93	0.714
797.11	0.348
797.30	0.259
797.48	0.448
797.67	0.144
797.85	0.249
798.04	1.296
798.22	0.015
798.41	-0.229
798.59	0.261
798.77	-0.031
798.96	0.046
799.14	0.170
799.33	0.559
799.51	-0.483
799.70	0.746
799.88	0.288
800.07	0.090
800.25	0.458
800.44	-0.249
800.62	0.251
800.80	0.702
800.99	0.207
801.17	0.000
801.36	0.311
801.54	0.265
801.73	-0.265
801.91	0.146
802.10	0.145
802.28	0.553
802.46	1.265
802.65	0.230
802.83	0.202
803.02	0.429
803.20	0.228
803.39	0.014
803.57	0.343
803.75	0.628
803.94	0.015
804.12	0.731
804.31	0.593
804.49	0.224
804.67	0.475
804.86	1.064
805.04	-0.272
805.23	0.920
805.41	0.839
805.59	0.357
805.78	-0.016
805.96	0.311
806.15	0.000
806.33	-0.293
806.51	0.184
806.70	0.335
806.88	-0.259
807.07	0.170
807.25	0.648
807.43	-0.127
807.62	0.415
807.80	-0.048
807.99	0.547
808.17	0.402
808.35	-0.551
808.54	0.852
808.72	0.499
808.90	0.527
809.09	-0.165
809.27	0.045
809.46	0.093
809.64	-0.136
809.82	-0.402
810.01	-0.371
810.19	0.184
810.37	0.179
810.56	0.060
810.74	-0.105
810.92	-0.015
811.11	0.255
811.29	0.290
811.48	-0.465
811.66	-0.079
811.84	0.757
812.03	0.377
812.21	0.688
812.39	0.324
812.58	-0.066
812.76	0.000
812.94	0.225
813.13	0.305
813.31	0.324
813.49	0.379
813.68	1.107
813.86	0.599
814.04	-0.253
814.23	0.946
814.41	-0.251
814.59	0.356
814.78	0.635
814.96	0.396
815.14	1.007
815.33	0.182
815.51	0.000
815.69	0.513
815.87	0.304
816.06	0.404
816.24	0.710
816.42	0.686
816.61	0.654
816.79	0.052
816.97	-0.236
817.16	0.055
817.34	1.141
817.52	-0.494
817.70	-0.131
817.89	-0.204
818.07	0.364
818.25	0.642
818.44	-0.036
818.62	0.518
818.80	-0.142
818.98	0.356
819.17	0.236
819.35	0.186
819.53	1.032
819.72	0.490
819.90	0.577
820.08	0.174
820.26	0.309
820.45	0.259
820.63	0.080
820.81	0.556
820.99	0.782
821.18	0.669
821.36	1.487
821.54	0.096
821.73	0.736
821.91	0.620
822.09	0.299
822.27	0.100
822.46	1.006
822.64	1.478
822.82	0.186
823.00	-0.042
823.19	0.769
823.37	-0.237
823.55	0.732
823.73	0.379
823.91	-1.045
824.10	-0.230
824.28	0.164
824.46	0.439
824.64	0.024
824.83	-0.516
825.01	-0.048
825.19	0.424
825.37	0.602
825.56	1.014
825.74	-0.301
825.92	0.339
826.10	-0.469
826.28	0.131
826.47	1.028
826.65	0.282
826.83	-0.464
827.01	0.676
827.19	-0.239
827.38	0.554
827.56	0.131
827.74	0.714
827.92	0.396
828.10	0.309
828.29	-0.641
828.47	1.429
828.65	0.225
828.83	1.828
829.01	-1.061
829.20	-0.178
829.38	0.000
829.56	0.284
829.74	-0.052
829.92	1.088
830.10	0.026
830.29	-0.578
830.47	-0.130
830.65	-0.671
830.83	0.979
831.01	0.957
831.20	1.217
831.38	-0.536
831.56	-0.652
831.74	-0.283
831.92	0.000
832.10	1.076
832.29	0.595
832.47	1.102
832.65	0.807
832.83	-0.340
833.01	0.389
833.19	0.709
833.37	0.945
833.56	0.784
833.74	1.446
833.92	1.084
834.10	1.021
834.28	0.939
834.46	-0.223
834.64	0.856
834.83	0.620
835.01	0.110
835.19	-0.746
835.37	-0.083
835.55	-1.017
835.73	0.984
835.91	0.471
836.09	0.027
836.28	1.345
836.46	2.033
836.64	-0.284
836.82	-0.504
837.00	-0.675
837.18	0.690
837.36	0.443
837.54	0.474
837.72	0.270
837.91	1.253
838.09	-0.311
838.27	0.188
838.45	0.158
838.63	0.325
838.81	-0.263
838.99	-0.879
839.17	2.480
839.35	2.038
839.53	0.440
839.72	0.967
839.90	1.173
840.08	2.506
840.26	1.422
840.44	-0.839
840.62	0.460
840.80	0.365
840.98	-0.307
841.16	0.533
841.34	-0.131
841.52	-1.418
841.70	1.223
841.89	1.344
842.07	-1.029
842.25	0.262
842.43	1.536
842.61	0.722
842.79	0.448
842.97	0.238
843.15	0.886
843.33	0.961
843.51	1.136
843.69	0.660
843.87	1.425
844.05	1.029
844.23	1.572
844.41	2.636
844.59	2.172
844.77	-0.754
844.95	0.301
845.13	-0.115
845.31	0.186
845.50	1.097
845.68	0.234
845.86	-0.893
846.04	-1.453
846.22	1.384
846.40	0.626
846.58	0.477
846.76	1.493
846.94	1.420
847.12	0.655
847.30	0.186
847.48	0.339
847.66	0.538
847.84	-0.644
848.02	0.408
848.20	1.121
848.38	1.205
848.56	0.708
848.74	-0.709
848.92	-0.199
849.10	1.138
849.28	0.204
849.46	-0.082
849.64	1.013
849.82	1.237
850.00	0.458
850.18	-0.083
850.36	0.284
850.54	0.559
850.72	0.040
850.90	1.848
851.08	-0.166
851.26	0.416
851.44	1.699
851.62	0.081
851.80	1.625
851.98	1.836
852.16	1.452
852.34	1.296
852.52	1.602
852.70	1.823
852.87	0.329
853.05	-0.982
853.23	0.760
853.41	0.247
853.59	2.202
853.77	-0.789
853.95	-0.751
854.13	1.095
854.31	0.958
854.49	0.493
854.67	0.508
854.85	1.253
855.03	0.454
855.21	0.269
855.39	0.154
855.57	-0.412
855.75	1.680
855.93	1.386
856.11	-1.130
856.28	1.191
856.46	0.558
856.64	0.935
856.82	-0.040
857.00	-0.579
857.18	0.875
857.36	-1.314
857.54	0.759
857.72	1.378
857.90	0.805
858.08	-0.585
858.26	1.045
858.44	1.686
858.61	0.074
858.79	-1.160
858.97	0.884
859.15	0.344
859.33	0.077
859.51	0.343
859.69	0.150
859.87	2.221
860.05	1.026
860.23	1.903
860.40	1.547
860.58	-0.841
860.76	1.427
860.94	0.300
861.12	0.544
861.30	0.229
861.48	0.526
861.66	-0.227
861.84	1.112
862.01	-0.893
862.19	1.139
862.37	0.466
862.55	-0.423
862.73	0.764
862.91	-0.076
863.09	2.841
863.27	0.434
863.44	-0.074
863.62	1.284
863.80	2.126
863.98	1.047
864.16	0.036
864.34	0.223
864.52	0.730
864.69	1.991
864.87	1.563
865.05	2.372
865.23	2.406
865.41	2.528
865.59	4.144
865.76	2.686
865.94	4.297
866.12	2.955
866.30	2.839
866.48	2.098
866.66	3.607
866.83	2.431
867.01	2.247
867.19	2.129
867.37	2.587
867.55	1.659
867.73	0.451
867.90	1.002
868.08	2.637
868.26	1.160
868.44	1.735
868.62	3.395
868.79	1.149
868.97	1.715
869.15	2.108
869.33	2.414
869.51	0.966
869.69	3.715
869.86	-0.573
870.04	0.000
870.22	1.265
870.40	0.683
870.57	1.584
870.75	1.195
870.93	1.230
871.11	1.987
871.29	2.237
871.46	1.842
871.64	3.233
871.82	1.219
872.00	2.104
872.18	1.233
872.35	1.285
872.53	2.460
872.71	1.583
872.89	1.528
873.06	1.229
873.24	1.502
873.42	2.356
873.60	3.204
873.77	2.753
873.95	1.739
874.13	1.664
874.31	2.941
874.49	1.957
874.66	2.747
874.84	1.505
875.02	2.945
875.20	3.615
875.37	2.022
875.55	3.700
875.73	4.232
875.91	3.946
876.08	3.458
876.26	5.511
876.44	7.333
876.61	6.748
876.79	5.355
876.97	8.791
877.15	10.830
877.32	11.065
877.50	10.616
877.68	12.577
877.86	14.167
878.03	14.276
878.21	17.331
878.39	16.542
878.56	20.274
878.74	19.250
878.92	22.575
879.10	20.041
879.27	20.904
879.45	20.881
879.63	22.998
879.80	21.683
879.98	22.875
880.16	21.664
880.34	19.593
880.51	20.759
880.69	19.107
880.87	18.666
881.04	16.074
881.22	17.482
881.40	16.800
881.57	16.333
881.75	15.522
881.93	16.744
882.10	16.629
882.28	17.446
882.46	16.264
882.63	16.468
882.81	17.630
882.99	18.084
883.16	18.752
883.34	17.784
883.52	18.164
883.69	19.852
883.87	19.821
884.05	23.851
884.22	23.322
884.40	22.870
884.58	24.891
884.75	27.592
884.93	31.153
885.11	33.199
885.28	35.006
885.46	39.446
885.64	41.176
885.81	46.141
885.99	49.056
886.17	54.410
886.34	61.827
886.52	61.882
886.70	71.091
886.87	73.044
887.05	73.958
887.22	74.768
887.40	72.885
887.58	74.225
887.75	74.739
887.93	69.465
888.11	70.806
888.28	64.251
888.46	59.975
888.63	56.319
888.81	52.495
888.99	49.318
889.16	44.535
889.34	42.569
889.51	36.495
889.69	33.827
889.87	30.720
890.04	29.090
890.22	27.376
890.39	25.185
890.57	25.675
890.75	22.872
890.92	23.219
891.10	21.530
891.27	20.378
891.45	18.991
891.63	18.488
891.80	19.550
891.98	18.471
892.15	19.266
892.33	16.944
892.51	16.363
892.68	19.868
892.86	19.933
893.03	18.273
893.21	19.261
893.38	18.750
893.56	19.029
893.74	20.415
893.91	22.504
894.09	23.541
894.26	22.084
894.44	25.796
894.61	26.620
894.79	27.149
894.96	29.588
895.14	30.342
895.32	32.761
895.49	33.512
895.67	34.268
895.84	37.167
896.02	39.361
896.19	41.753
896.37	42.805
896.54	45.981
896.72	45.019
896.89	46.273
897.07	44.629
897.25	46.465
897.42	44.064
897.60	44.615
897.77	45.159
897.95	42.272
898.12	40.014
898.30	37.891
898.47	39.179
898.65	35.202
898.82	33.023
899.00	31.325
899.17	29.133
899.35	27.152
899.52	26.187
899.70	22.048
899.87	20.194
900.05	19.317
900.22	18.499
900.40	16.277
900.57	13.815
900.75	16.009
900.92	15.957
901.10	15.433
901.27	13.292
901.45	13.057
901.62	10.916
901.80	11.193
901.97	10.949
902.15	10.179
902.32	8.066
902.50	10.869
902.67	8.028
902.85	9.192
903.02	9.337
903.20	7.759
903.37	10.923
903.54	6.989
903.72	7.349
903.89	8.014
904.07	9.220
904.24	9.605
904.42	8.484
904.59	9.403
904.77	6.331
904.94	7.363
905.12	7.570
905.29	6.938
905.47	7.979
905.64	8.019
905.81	8.640
905.99	7.316
906.16	8.217
906.34	10.396
906.51	7.898
906.69	11.261
906.86	9.065
907.03	12.061
907.21	12.409
907.38	12.798
907.56	10.315
907.73	12.350
907.91	15.559
908.08	14.189
908.25	12.739
908.43	14.771
908.60	14.071
908.78	17.924
908.95	18.086
909.13	20.154
909.30	20.658
909.47	20.160
909.65	21.287
909.82	21.745
910.00	26.935
910.17	26.000
910.34	25.171
910.52	27.672
910.69	29.710
910.87	29.959
911.04	31.595
911.21	29.681
911.39	30.078
911.56	34.025
911.73	31.367
911.91	35.428
912.08	33.693
912.26	33.847
912.43	31.979
912.60	34.653
912.78	29.803
912.95	32.284
913.13	30.842
913.30	29.693
913.47	34.862
913.65	30.433
913.82	27.402
913.99	25.225
914.17	26.321
914.34	25.000
914.51	23.439
914.69	22.104
914.86	21.797
915.03	19.484
915.21	20.268
915.38	19.471
915.56	19.659
915.73	19.435
915.90	20.362
916.08	18.167
916.25	16.790
916.42	13.565
916.60	14.797
916.77	15.896
916.94	16.087
917.12	13.969
917.29	15.464
917.46	18.075
917.64	14.852
917.81	16.525
917.98	16.060
918.16	17.362
918.33	16.986
918.50	16.275
918.67	15.126
918.85	16.212
919.02	17.035
919.19	16.630
919.37	17.819
919.54	17.637
919.71	13.659
919.89	17.391
920.06	18.187
920.23	14.105
920.41	18.062
920.58	17.811
920.75	19.599
920.92	18.300
921.10	19.195
921.27	18.585
921.44	23.111
921.62	23.689
921.79	22.532
921.96	26.008
922.13	26.594
922.31	28.207
922.48	28.444
922.65	29.746
922.82	31.909
923.00	33.738
923.17	36.478
923.34	36.305
923.52	38.404
923.69	38.984
923.86	39.650
924.03	43.618
924.21	48.331
924.38	47.219
924.55	49.612
924.72	57.530
924.90	62.820
925.07	64.119
925.24	67.185
925.41	72.639
925.59	69.024
925.76	71.616
925.93	77.059
926.10	78.993
926.28	76.934
926.45	83.272
926.62	78.601
926.79	78.211
926.96	78.301
927.14	72.555
927.31	74.377
927.48	77.381
927.65	73.420
927.83	77.562
928.00	70.644
928.17	77.993
928.34	72.119
928.51	75.037
928.69	72.453
928.86	73.295
929.03	70.558
929.20	69.607
929.37	65.868
929.55	68.224
929.72	67.359
929.89	66.248
930.06	65.674
930.23	59.148
930.41	59.773
930.58	61.604
930.75	57.238
930.92	56.468
931.09	59.184
931.27	57.393
931.44	60.776
931.61	57.082
931.78	57.646
931.95	60.952
932.12	56.140
932.30	56.955
932.47	52.654
932.64	54.529
932.81	47.723
932.98	55.407
933.16	58.413
933.33	55.053
933.50	61.040
933.67	54.239
933.84	60.940
934.01	59.367
934.18	60.704
934.36	59.696
934.53	66.145
934.70	74.172
934.87	67.393
935.04	66.982
935.21	70.766
935.38	67.227
935.56	71.273
935.73	68.756
935.90	73.043
936.07	73.571
936.24	74.098
936.41	76.813
936.58	80.607
936.76	82.600
936.93	82.081
937.10	90.423
937.27	84.768
937.44	83.315
937.61	87.924
937.78	90.387
937.95	90.643
938.13	87.129
938.30	86.703
938.47	78.732
938.64	86.854
938.81	86.966
938.98	84.900
939.15	80.444
939.32	85.011
939.49	77.527
939.66	78.959
939.84	86.035
940.01	73.722
940.18	76.761
940.35	69.016
940.52	70.824
940.69	69.666
940.86	71.627
941.03	66.746
941.20	62.885
941.37	64.970
941.54	69.011
941.71	66.897
941.89	66.086
942.06	63.384
942.23	55.130
942.40	62.184
942.57	60.424
942.74	65.410
942.91	57.560
943.08	61.168
943.25	58.386
943.42	62.500
943.59	59.371
943.76	57.490
943.93	58.390
944.10	53.571
944.27	60.456
944.44	63.437
944.61	67.125
944.79	62.394
944.96	70.431
945.13	65.189
945.30	67.615
945.47	63.151
945.64	60.606
945.81	68.283
945.98	69.517
946.15	66.086
946.32	76.495
946.49	67.323
946.66	73.118
946.83	64.835
947.00	75.917
947.17	75.185
947.34	74.672
947.51	78.867
947.68	79.180
947.85	77.778
948.02	79.821
948.19	79.650
948.36	101.184
948.53	93.080
948.70	93.907
948.87	96.223
949.04	85.312
949.21	81.353
949.38	88.095
949.55	88.266
949.72	84.514
949.89	82.031
950.06	97.531
950.23	83.333
950.40	86.235
950.57	89.730
950.74	82.686
950.91	91.176
951.08	78.571
951.25	80.798
951.42	96.975
951.59	85.353
951.76	77.778
951.93	83.273
952.10	79.348
952.27	77.412
952.44	81.837
952.61	75.054
952.77	71.917
952.94	65.244
953.11	62.476
953.28	70.566
953.45	72.764
953.62	58.984
953.79	62.778
953.96	61.523
954.13	62.069
954.30	56.855
954.47	61.593
954.64	58.846
954.81	55.936
954.98	54.328
955.15	57.400
955.32	43.761
955.49	54.795
955.65	60.000
955.82	47.862
955.99	46.346
956.16	54.832
956.33	50.497
956.50	49.027
956.67	48.089
956.84	42.509
957.01	46.640
957.18	47.515
957.35	42.339
957.52	50.201
957.68	47.768
957.85	38.936
958.02	36.842
958.19	54.390
958.36	56.161
958.53	54.167
958.70	44.540
958.87	47.651
959.04	40.000
959.21	53.084
959.37	68.831
959.54	59.770
959.71	53.081
959.88	50.108
960.05	54.632
960.22	73.544
960.39	59.903
960.56	60.965
960.72	56.965
960.89	60.297
961.06	51.042
961.23	60.998
961.40	64.855
961.57	71.991
961.74	60.870
961.90	71.717
962.07	70.675
962.24	66.540
962.41	69.978
962.58	73.077
962.75	71.967
962.92	75.817
963.08	72.135
963.25	70.716
963.42	73.381
963.59	62.288
963.76	74.492
963.93	64.450
964.10	80.233
964.26	57.741
964.43	52.194
964.60	71.294
964.77	62.500
964.94	66.745
965.10	60.331
965.27	52.860
965.44	62.187
965.61	71.739
965.78	56.818
965.95	57.757
966.11	58.065
966.28	58.172
966.45	51.105
966.62	43.990
966.79	49.735
966.95	50.000
967.12	58.559
967.29	52.381
967.46	47.059
967.63	36.596
967.79	39.696
967.96	36.283
968.13	34.893
968.30	47.638
968.47	38.542
968.63	46.908
968.80	41.483
968.97	48.292
969.14	40.198
969.31	38.248
969.47	38.550
969.64	32.465
969.81	34.461
969.98	31.618
970.14	40.998
970.31	30.435
970.48	28.795
970.65	39.765
970.81	23.698
970.98	30.621
971.15	35.010
971.32	32.667
971.48	25.055
971.65	34.501
971.82	27.991
971.99	30.159
972.15	30.879
972.32	27.934
972.49	28.145
972.66	30.134
972.82	23.025
972.99	37.647
973.16	30.983
973.33	31.043
973.49	15.869
973.66	26.190
973.83	29.592
974.00	42.568
974.16	31.136
974.33	29.050
974.50	35.024
974.67	23.210
974.83	37.772
975.00	26.316
975.17	27.126
975.33	38.785
975.50	36.290
975.67	36.866
975.84	39.530
976.00	30.824
976.17	27.059
976.34	39.447
976.50	38.950
976.67	35.780
976.84	38.010
977.00	41.844
977.17	44.507
977.34	38.517
977.50	38.874
977.67	43.379
977.84	50.716
978.01	48.168
978.17	55.668
978.34	52.605
978.51	49.153
978.67	62.615
978.84	52.874
979.01	54.009
979.17	60.421
979.34	58.549
979.51	62.250
979.67	67.233
979.84	62.470
980.01	50.114
980.17	65.805
980.34	60.938
980.51	67.206
980.67	64.675
980.84	55.052
981.01	78.030
981.17	65.882
981.34	69.053
981.50	69.952
981.67	77.419
981.84	73.105
982.00	76.804
982.17	72.265
982.34	71.729
982.50	74.593
982.67	65.375
982.84	74.533
983.00	76.501
983.17	70.413
983.33	75.111
983.50	73.318
983.67	70.705
983.83	60.579
984.00	79.327
984.17	67.597
984.33	78.500
984.50	70.190
984.66	68.814
984.83	76.282
985.00	67.333
985.16	64.810
985.33	74.773
985.49	67.091
985.66	60.364
985.83	66.393
985.99	70.393
986.16	62.427
986.32	66.265
986.49	60.407
986.66	67.654
986.82	67.904
986.99	63.170
987.15	74.299
987.32	75.236
987.49	62.670
987.65	68.065
987.82	55.412
987.98	59.390
988.15	69.211
988.31	70.213
988.48	61.137
988.65	75.661
988.81	59.284
988.98	64.694
989.14	64.692
989.31	63.834
989.47	68.510
989.64	68.018
989.80	71.831
989.97	69.264
990.14	69.787
990.30	83.173
990.47	83.738
990.63	79.118
990.80	72.577
990.96	74.654
991.13	53.571
991.29	79.097
991.46	82.898
991.62	78.605
991.79	70.146
991.95	88.939
992.12	84.580
992.29	80.285
992.45	90.138
992.62	91.256
992.78	84.906
992.95	102.392
993.11	87.696
993.28	96.577
993.44	88.184
993.61	76.141
993.77	106.283
993.94	85.584
994.10	82.278
994.27	104.156
994.43	90.506
994.60	103.000
994.76	83.834
994.93	87.244
995.09	95.957
995.26	99.272
995.42	95.864
995.59	97.361
995.75	96.296
995.92	75.529
996.08	90.353
996.25	100.494
996.41	82.353
996.58	91.553
996.74	80.892
996.91	84.856
997.07	95.610
997.23	88.971
997.40	76.821
997.56	77.804
997.73	83.750
997.89	75.168
998.06	71.145
998.22	78.133
998.39	72.479
998.55	77.367
998.72	62.850
998.88	78.750
999.05	63.466
999.21	75.656
999.37	70.479
999.54	66.919
999.70	52.079
999.87	49.246
1000.03	67.808
1000.20	62.500
1000.36	61.631
1000.52	57.322
1000.69	58.182
1000.85	51.620
1001.02	49.772
1001.18	49.904
1001.35	57.749
1001.51	55.011
1001.67	46.325
1001.84	40.928
1002.00	45.798
1002.17	44.037
1002.33	53.162
1002.50	47.856
1002.66	49.289
1002.82	46.985
1002.99	49.067
1003.15	60.652
1003.32	57.393
1003.48	42.105
1003.64	39.695
1003.81	56.180
1003.97	41.781
1004.14	55.924
1004.30	54.054
1004.46	59.530
1004.63	42.424
1004.79	51.053
1004.95	55.527
1005.12	63.187
1005.28	57.853
1005.45	45.392
1005.61	55.501
1005.77	61.576
1005.94	49.776
1006.10	56.675
1006.26	51.079
1006.43	49.289
1006.59	56.180
1006.76	55.145
1006.92	61.647
1007.08	56.220
1007.25	51.876
1007.41	42.446
1007.57	61.520
1007.74	56.927
1007.90	49.742
1008.06	69.531
1008.23	59.744
1008.39	70.084
1008.55	61.290
1008.72	60.848
1008.88	74.889
1009.04	73.866
1009.21	63.484
1009.37	71.842
1009.53	65.228
1009.70	69.624
1009.86	76.984
1010.02	63.098
1010.19	81.714
1010.35	74.041
1010.51	76.134
1010.68	68.182
1010.84	72.703
1011.00	72.821
1011.17	80.055
1011.33	66.259
1011.49	71.751
1011.66	70.256
1011.82	68.798
1011.98	84.894
1012.14	67.397
1012.31	80.236
1012.47	71.100
1012.63	68.966
1012.80	62.434
1012.96	65.775
1013.12	66.667
1013.29	60.942
1013.45	54.047
1013.61	67.442
1013.77	71.576
1013.94	58.486
1014.10	52.727
1014.26	50.248
1014.43	61.538
1014.59	51.902
1014.75	46.114
1014.91	59.725
1015.08	47.215
1015.24	48.256
1015.40	47.750
1015.56	34.474
1015.73	38.025
1015.89	39.247
1016.05	34.597
1016.21	39.846
1016.38	41.287
1016.54	33.041
1016.70	46.176
1016.86	33.046
1017.03	35.695
1017.19	28.678
1017.35	21.226
1017.51	36.438
1017.68	34.286
1017.84	32.471
1018.00	42.559
1018.16	24.444
1018.33	25.843
1018.49	31.429
1018.65	26.975
1018.81	36.391
1018.97	25.779
1019.14	31.880
1019.30	34.278
1019.46	25.430
1019.62	-1.953
1019.79	34.169
1019.95	30.334
1020.11	20.872
1020.27	24.918
1020.43	17.544
1020.60	29.545
1020.76	29.963
1020.92	37.535
1021.08	12.500
1021.24	33.851
1021.41	21.667
1021.57	33.908
1021.73	22.951
1021.89	27.303
1022.05	27.875
1022.21	32.778
1022.38	37.429
1022.54	33.238
1022.70	18.667
1022.86	28.530
1023.02	35.072
1023.19	28.947
1023.35	22.508
1023.51	24.038
1023.67	37.209
1023.83	6.870
1023.99	29.930
1024.16	15.476
1024.32	36.570
1024.48	25.532
1024.64	22.517
1024.80	19.149
1024.96	33.025
1025.12	27.586
1025.29	16.961
1025.45	25.000
1025.61	25.161
1025.77	16.968
1025.93	38.820
1026.09	18.147
1026.26	44.932
1026.42	23.361
1026.58	31.142
1026.74	30.980
1026.90	26.284
1027.06	15.182
1027.22	26.510
1027.38	29.433
1027.55	28.155
1027.71	29.942
1027.87	42.373
1028.03	36.653
1028.19	29.492
1028.35	23.985
1028.51	42.208
1028.67	35.361
1028.83	-3.463
1029.00	24.828
1029.16	37.500
1029.32	38.722
1029.48	25.000
1029.64	38.689
1029.80	40.650
1029.96	30.159
1030.12	32.601
1030.28	23.158
1030.44	42.063
1030.61	31.224
1030.77	42.213
1030.93	30.556
1031.09	12.549
1031.25	28.934
1031.41	33.735
1031.57	35.443
1031.73	32.500
1031.89	38.516
1032.05	38.202
1032.21	35.918
1032.37	41.727
1032.53	40.824
1032.69	33.476
1032.86	44.712
1033.02	31.894
1033.18	34.615
1033.34	33.692
1033.50	19.689
1033.66	36.981
1033.82	50.549
1033.98	24.138
1034.14	44.700
1034.30	39.695
1034.46	51.504
1034.62	38.824
1034.78	47.059
1034.94	23.466
1035.10	30.097
1035.26	32.990
1035.42	46.689
1035.58	41.516
1035.74	33.195
1035.90	50.244
1036.06	39.326
1036.22	37.786
1036.38	40.088
1036.54	36.885
1036.70	26.667
1036.86	51.031
1037.02	52.747
1037.18	33.333
1037.34	48.413
1037.50	51.942
1037.66	27.895
1037.82	35.764
1037.98	41.935
1038.14	46.409
1038.30	31.538
1038.46	51.439
1038.62	22.535
1038.78	42.788
1038.94	46.798
1039.10	36.364
1039.26	53.879
1039.42	27.064
1039.58	26.627
1039.74	49.372
1039.90	24.500
1040.06	53.659
>>>>>End Processed Spectral Data<<<<<
