SpectraSuite Data File
++++++++++++++++++++++++++++++++++++
Date: Wed Jan 25 18:34:54 EET 2017
User: TheoProf
Dark Spectrum Present: Yes
Reference Spectrum Present: Yes
Number of Sampled Component Spectra: 1
Spectrometers: USB4C02475
Integration Time (usec): 64136 (USB4C02475)
Spectra Averaged: 1 (USB4C02475)
Boxcar Smoothing: 0 (USB4C02475)
Correct for Electrical Dark: No (USB4C02475)
Strobe/Lamp Enabled: No (USB4C02475)
Correct for Detector Non-linearity: No (USB4C02475)
Correct for Stray Light: No (USB4C02475)
Number of Pixels in Processed Spectrum: 3648
>>>>>Begin Processed Spectral Data<<<<<
344.91	375.000
345.13	375.000
345.35	375.000
345.57	214.286
345.79	400.000
346.00	100.000
346.22	-350.000
346.44	86.207
346.66	-400.000
346.87	186.207
347.09	500.000
347.31	47.826
347.53	11.765
347.74	73.684
347.96	92.857
348.18	-0.000
348.40	110.526
348.61	-46.154
348.83	9.091
349.05	32.787
349.27	120.833
349.48	11.765
349.70	82.353
349.92	35.484
350.14	50.820
350.35	125.926
350.57	-50.000
350.79	70.588
351.01	43.077
351.22	-210.000
351.44	84.615
351.66	-120.000
351.87	33.333
352.09	-50.000
352.31	-102.857
352.53	18.333
352.74	-48.276
352.96	86.000
353.18	31.707
353.40	1500.000
353.61	66.667
353.83	418.182
354.05	380.000
354.26	-10.606
354.48	4.762
354.70	-15.789
354.92	34.615
355.13	-10.345
355.35	56.604
355.57	54.902
355.78	-51.613
356.00	41.667
356.22	124.658
356.44	4.687
356.65	25.000
356.87	115.385
357.09	32.000
357.30	2.041
357.52	500.000
357.74	10.909
357.95	220.833
358.17	11.364
358.39	106.977
358.60	103.125
358.82	-7.692
359.04	260.000
359.26	35.294
359.47	75.000
359.69	40.594
359.91	-90.000
360.12	-340.000
360.34	137.838
360.56	41.667
360.77	28.205
360.99	82.759
361.21	32.143
361.42	6.383
361.64	300.000
361.86	66.667
362.07	60.976
362.29	-93.182
362.51	20.238
362.72	307.692
362.94	87.692
363.16	65.909
363.37	35.937
363.59	-64.000
363.81	-25.000
364.02	59.184
364.24	-153.846
364.46	123.077
364.67	550.000
364.89	-30.303
365.11	-11.111
365.32	-3.571
365.54	-94.737
365.76	19.540
365.97	-48.485
366.19	-163.636
366.41	42.857
366.62	20.000
366.84	-14.286
367.05	-5.455
367.27	233.333
367.49	122.581
367.70	77.143
367.92	102.632
368.14	-4.762
368.35	-8.824
368.57	31.646
368.79	26.415
369.00	34.694
369.22	100.000
369.43	70.313
369.65	35.000
369.87	62.857
370.08	-86.111
370.30	180.000
370.51	-20.000
370.73	60.606
370.95	-100.000
371.16	-9.259
371.38	350.000
371.60	466.667
371.81	28.947
372.03	36.232
372.24	-775.000
372.46	51.724
372.68	-83.333
372.89	56.140
373.11	33.898
373.32	122.222
373.54	31.579
373.76	65.306
373.97	59.459
374.19	-15.385
374.40	3.448
374.62	-125.000
374.84	68.000
375.05	72.222
375.27	12.000
375.48	-76.471
375.70	58.621
375.92	11.538
376.13	-66.667
376.35	-82.540
376.56	-71.429
376.78	138.636
376.99	18.462
377.21	-62.791
377.43	3.846
377.64	89.610
377.86	92.857
378.07	140.000
378.29	-18.182
378.51	20.988
378.72	43.836
378.94	24.286
379.15	40.351
379.37	-18.000
379.58	-6.250
379.80	27.083
380.01	21.053
380.23	-17.778
380.45	2.632
380.66	-10.145
380.88	213.636
381.09	-25.000
381.31	12.500
381.52	-286.957
381.74	63.158
381.95	-190.000
382.17	36.364
382.39	39.655
382.60	-19.048
382.82	-20.000
383.03	31.250
383.25	-21.250
383.46	-57.895
383.68	13.636
383.89	66.667
384.11	32.203
384.32	0.000
384.54	28.283
384.76	32.609
384.97	-11.765
385.19	-6.250
385.40	1.613
385.62	18.966
385.83	4.762
386.05	56.667
386.26	140.741
386.48	24.590
386.69	-44.444
386.91	0.000
387.12	16.923
387.34	-28.846
387.55	-177.778
387.77	26.027
387.98	22.549
388.20	5.263
388.41	-28.571
388.63	84.000
388.84	45.588
389.06	6.061
389.27	35.644
389.49	-1.538
389.70	52.941
389.92	-8.929
390.13	61.224
390.35	32.353
390.56	127.451
390.78	45.455
390.99	-4.225
391.21	79.412
391.42	11.111
391.64	15.000
391.85	45.833
392.07	-175.000
392.28	6.557
392.50	-3.333
392.71	8.065
392.93	50.000
393.14	1.887
393.36	8.491
393.57	-8.602
393.79	-4300.000
394.00	47.059
394.22	12.500
394.43	-2.151
394.65	-40.323
394.86	-1.923
395.08	41.772
395.29	51.765
395.50	-4.878
395.72	-35.484
395.93	28.571
396.15	45.161
396.36	-29.885
396.58	26.087
396.79	14.865
397.01	50.000
397.22	13.433
397.44	18.487
397.65	44.167
397.87	72.973
398.08	34.188
398.29	-14.706
398.51	40.000
398.72	18.939
398.94	42.982
399.15	-3.960
399.37	42.537
399.58	10.638
399.80	40.196
400.01	34.524
400.22	-16.667
400.44	6.667
400.65	6.618
400.87	31.034
401.08	6.818
401.30	-12.500
401.51	-17.742
401.72	34.194
401.94	31.034
402.15	-6.897
402.37	41.509
402.58	-20.833
402.80	-10.959
403.01	-46.914
403.22	24.211
403.44	25.758
403.65	46.324
403.87	16.429
404.08	22.436
404.30	16.154
404.51	50.000
404.72	51.773
404.94	23.664
405.15	10.135
405.37	42.520
405.58	0.000
405.79	28.421
406.01	31.373
406.22	33.600
406.44	39.716
406.65	38.750
406.86	48.344
407.08	32.407
407.29	26.316
407.51	53.846
407.72	52.083
407.93	40.132
408.15	30.061
408.36	31.387
408.58	28.649
408.79	30.986
409.00	43.226
409.22	36.066
409.43	50.355
409.64	38.281
409.86	34.568
410.07	35.443
410.29	25.701
410.50	11.017
410.71	27.451
410.93	26.203
411.14	17.791
411.35	45.098
411.57	14.458
411.78	1.183
412.00	40.559
412.21	-2.740
412.42	22.754
412.64	12.879
412.85	39.766
413.06	20.183
413.28	43.333
413.49	26.570
413.70	43.503
413.92	53.103
414.13	48.214
414.34	29.319
414.56	38.650
414.77	41.765
414.98	28.272
415.20	53.757
415.41	15.000
415.63	44.298
415.84	36.765
416.05	35.652
416.27	33.182
416.48	46.721
416.69	39.189
416.91	35.266
417.12	49.479
417.33	29.114
417.55	27.907
417.76	41.954
417.97	36.098
418.19	54.710
418.40	33.516
418.61	29.832
418.83	20.362
419.04	42.793
419.25	29.098
419.46	29.258
419.68	49.048
419.89	21.925
420.10	35.146
420.32	45.418
420.53	24.096
420.74	31.538
420.96	43.028
421.17	23.715
421.38	42.529
421.60	47.083
421.81	43.750
422.02	34.866
422.23	29.046
422.45	52.593
422.66	53.333
422.87	43.130
423.09	29.075
423.30	48.148
423.51	53.137
423.73	44.156
423.94	44.983
424.15	48.263
424.36	44.375
424.58	40.830
424.79	43.894
425.00	44.718
425.22	44.333
425.43	54.710
425.64	54.870
425.85	35.223
426.07	38.801
426.28	50.685
426.49	46.863
426.71	48.538
426.92	43.787
427.13	50.495
427.34	53.333
427.56	56.548
427.77	57.031
427.98	34.274
428.19	52.896
428.41	44.369
428.62	29.795
428.83	38.997
429.04	48.137
429.26	42.478
429.47	47.385
429.68	43.385
429.89	47.917
430.11	44.792
430.32	49.340
430.53	36.667
430.74	49.689
430.96	50.524
431.17	49.003
431.38	41.613
431.59	49.847
431.81	40.860
432.02	39.607
432.23	34.318
432.44	41.026
432.66	46.369
432.87	42.249
433.08	41.667
433.29	38.325
433.51	42.647
433.72	49.180
433.93	39.627
434.14	40.845
434.35	39.952
434.57	42.558
434.78	39.518
434.99	54.095
435.20	53.981
435.42	55.943
435.63	53.506
435.84	54.281
436.05	54.674
436.26	45.753
436.48	45.234
436.69	51.277
436.90	38.580
437.11	42.272
437.32	40.292
437.54	34.927
437.75	43.340
437.96	33.333
438.17	28.640
438.38	37.751
438.60	38.060
438.81	36.145
439.02	35.771
439.23	38.704
439.44	35.742
439.66	39.643
439.87	46.705
440.08	52.066
440.29	43.992
440.50	41.359
440.72	34.727
440.93	41.176
441.14	44.168
441.35	42.829
441.56	40.285
441.77	43.350
441.99	30.182
442.20	44.086
442.41	39.535
442.62	37.759
442.83	38.851
443.04	38.134
443.26	38.278
443.47	33.835
443.68	27.104
443.89	23.020
444.10	25.448
444.31	19.601
444.53	24.374
444.74	24.367
444.95	25.316
445.16	21.477
445.37	9.385
445.58	10.161
445.80	15.347
446.01	19.225
446.22	13.162
446.43	17.331
446.64	7.044
446.85	12.672
447.06	12.945
447.28	8.187
447.49	7.547
447.70	5.352
447.91	9.502
448.12	11.067
448.33	5.793
448.54	6.955
448.76	5.974
448.97	1.410
449.18	3.069
449.39	6.279
449.60	5.478
449.81	8.333
450.02	2.962
450.23	7.943
450.45	4.737
450.66	5.283
450.87	1.155
451.08	7.673
451.29	0.278
451.50	1.713
451.71	-0.261
451.92	-1.348
452.13	8.582
452.35	1.285
452.56	-0.250
452.77	3.871
452.98	3.288
453.19	1.533
453.40	0.656
453.61	5.503
453.82	1.554
454.03	4.417
454.25	-1.548
454.46	-2.403
454.67	2.392
454.88	6.598
455.09	0.899
455.30	-1.580
455.51	5.131
455.72	6.000
455.93	3.377
456.14	3.260
456.35	0.224
456.56	4.950
456.78	2.732
456.99	-3.607
457.20	2.436
457.41	4.447
457.62	3.766
457.83	-3.187
458.04	6.785
458.25	3.005
458.46	3.122
458.67	2.629
458.88	5.538
459.09	0.101
459.30	-0.778
459.51	-2.863
459.73	2.979
459.94	2.242
460.15	3.067
460.36	3.282
460.57	3.510
460.78	2.277
460.99	4.279
461.20	0.085
461.41	3.330
461.62	2.826
461.83	3.125
462.04	0.771
462.25	0.353
462.46	-2.091
462.67	-0.170
462.88	6.326
463.09	3.292
463.30	-0.588
463.51	1.381
463.72	0.596
463.93	0.170
464.15	-1.215
464.36	5.669
464.57	2.088
464.78	1.395
464.99	3.691
465.20	3.545
465.41	3.472
465.62	2.867
465.83	1.717
466.04	3.386
466.25	2.634
466.46	4.737
466.67	1.923
466.88	2.263
467.09	3.975
467.30	1.499
467.51	3.696
467.72	3.964
467.93	1.031
468.14	1.099
468.35	2.452
468.56	3.896
468.77	3.639
468.98	0.192
469.19	1.073
469.40	2.661
469.61	0.820
469.82	4.238
470.03	-0.920
470.24	-1.003
470.45	3.555
470.66	1.320
470.87	2.649
471.08	1.385
471.29	2.903
471.50	1.844
471.71	3.125
471.92	-0.997
472.13	1.941
472.34	-0.057
472.55	1.448
472.76	1.410
472.97	0.651
473.18	2.170
473.39	0.865
473.60	1.857
473.81	0.818
474.01	1.136
474.22	4.404
474.43	2.269
474.64	0.050
474.85	1.893
475.06	0.983
475.27	1.548
475.48	0.694
475.69	3.877
475.90	2.144
476.11	3.327
476.32	2.316
476.53	2.382
476.74	1.706
476.95	2.527
477.16	0.641
477.37	0.799
477.58	1.180
477.79	-0.557
478.00	0.588
478.21	3.178
478.41	2.885
478.62	0.669
478.83	1.522
479.04	0.487
479.25	2.332
479.46	2.325
479.67	2.709
479.88	3.594
480.09	2.898
480.30	2.317
480.51	1.991
480.72	2.626
480.93	3.781
481.14	2.542
481.34	3.966
481.55	2.404
481.76	4.142
481.97	4.735
482.18	5.329
482.39	5.117
482.60	4.869
482.81	5.155
483.02	7.183
483.23	6.250
483.44	7.399
483.65	7.062
483.85	9.480
484.06	8.289
484.27	9.213
484.48	11.691
484.69	11.894
484.90	9.959
485.11	13.005
485.32	13.578
485.53	13.339
485.73	15.651
485.94	14.703
486.15	16.058
486.36	16.867
486.57	18.009
486.78	19.607
486.99	18.583
487.20	19.568
487.41	19.804
487.61	22.579
487.82	24.251
488.03	23.789
488.24	25.531
488.45	25.702
488.66	24.791
488.87	27.527
489.08	26.858
489.28	29.922
489.49	30.028
489.70	31.170
489.91	30.544
490.12	31.762
490.33	31.690
490.54	33.752
490.74	33.126
490.95	34.925
491.16	35.599
491.37	35.358
491.58	35.952
491.79	36.524
492.00	35.218
492.20	38.196
492.41	38.967
492.62	38.016
492.83	38.729
493.04	41.501
493.25	38.568
493.45	40.920
493.66	41.747
493.87	40.512
494.08	40.374
494.29	40.161
494.50	39.156
494.70	40.560
494.91	42.712
495.12	44.637
495.33	43.951
495.54	43.816
495.75	41.768
495.95	42.434
496.16	42.844
496.37	42.888
496.58	43.227
496.79	44.161
496.99	43.072
497.20	44.267
497.41	43.796
497.62	41.612
497.83	42.597
498.04	42.600
498.24	42.851
498.45	43.196
498.66	43.687
498.87	42.413
499.08	42.689
499.28	43.052
499.49	41.409
499.70	43.243
499.91	41.947
500.12	41.298
500.32	40.372
500.53	41.803
500.74	42.338
500.95	42.433
501.15	41.253
501.36	43.426
501.57	43.080
501.78	40.985
501.99	40.950
502.19	43.923
502.40	44.340
502.61	41.897
502.82	43.202
503.02	42.361
503.23	41.071
503.44	41.726
503.65	42.485
503.86	43.341
504.06	41.512
504.27	41.485
504.48	41.575
504.69	42.158
504.89	41.151
505.10	41.319
505.31	42.414
505.52	41.218
505.72	41.940
505.93	43.466
506.14	42.556
506.35	42.449
506.55	42.704
506.76	44.239
506.97	46.024
507.18	46.402
507.38	47.517
507.59	47.030
507.80	46.219
508.01	51.584
508.21	49.066
508.42	50.818
508.63	51.673
508.84	53.822
509.04	57.591
509.25	57.971
509.46	57.055
509.67	57.260
509.87	58.807
510.08	59.413
510.29	61.099
510.49	61.887
510.70	63.162
510.91	62.564
511.12	63.676
511.32	63.616
511.53	66.134
511.74	65.810
511.94	64.922
512.15	65.660
512.36	65.286
512.57	64.403
512.77	65.817
512.98	64.484
513.19	64.463
513.39	62.787
513.60	64.886
513.81	64.651
514.01	65.396
514.22	64.001
514.43	67.891
514.64	65.910
514.84	66.550
515.05	65.970
515.26	63.634
515.46	64.027
515.67	62.982
515.88	63.791
516.08	65.561
516.29	67.023
516.50	71.429
516.70	71.062
516.91	72.733
517.12	71.570
517.32	71.176
517.53	71.566
517.74	73.768
517.95	74.089
518.15	75.985
518.36	76.773
518.57	78.330
518.77	79.351
518.98	80.500
519.19	81.079
519.39	79.630
519.60	82.666
519.80	79.784
520.01	80.317
520.22	79.932
520.42	79.760
520.63	79.856
520.84	81.652
521.04	79.440
521.25	79.813
521.46	77.249
521.66	76.200
521.87	77.626
522.08	78.947
522.28	80.270
522.49	82.282
522.70	82.104
522.90	80.938
523.11	79.896
523.31	78.874
523.52	79.155
523.73	78.189
523.93	79.531
524.14	81.066
524.35	79.168
524.55	77.799
524.76	77.865
524.97	73.412
525.17	73.175
525.38	72.068
525.58	74.341
525.79	73.881
526.00	76.066
526.20	76.533
526.41	76.603
526.61	74.088
526.82	75.350
527.03	80.069
527.23	79.583
527.44	80.752
527.64	79.281
527.85	77.697
528.06	77.741
528.26	78.667
528.47	76.127
528.68	78.332
528.88	78.241
529.09	76.068
529.29	75.408
529.50	73.546
529.70	71.798
529.91	70.912
530.12	70.764
530.32	70.067
530.53	70.686
530.73	71.955
530.94	71.359
531.15	71.708
531.35	74.443
531.56	71.437
531.76	73.108
531.97	72.489
532.17	71.342
532.38	70.535
532.59	70.484
532.79	71.193
533.00	72.362
533.20	71.725
533.41	70.477
533.61	69.886
533.82	69.401
534.03	68.267
534.23	66.352
534.44	66.720
534.64	66.849
534.85	64.399
535.05	62.788
535.26	63.399
535.46	62.503
535.67	60.027
535.88	59.785
536.08	55.389
536.29	53.303
536.49	51.032
536.70	49.010
536.90	45.968
537.11	44.486
537.31	43.299
537.52	40.874
537.72	39.484
537.93	35.379
538.13	32.371
538.34	30.888
538.55	28.671
538.75	26.596
538.96	23.386
539.16	21.011
539.37	20.596
539.57	18.398
539.78	17.076
539.98	15.209
540.19	13.852
540.39	11.967
540.60	11.083
540.80	9.966
541.01	8.906
541.21	7.895
541.42	7.722
541.62	6.578
541.83	6.952
542.03	5.934
542.24	5.483
542.44	5.465
542.65	5.190
542.85	4.476
543.06	4.728
543.26	4.616
543.47	3.815
543.67	3.502
543.88	3.755
544.08	3.443
544.29	3.124
544.49	3.152
544.70	2.660
544.90	2.592
545.11	2.922
545.31	2.913
545.52	3.071
545.72	3.560
545.93	4.068
546.13	3.229
546.34	3.254
546.54	3.295
546.75	2.919
546.95	2.700
547.15	2.951
547.36	2.226
547.56	1.871
547.77	2.070
547.97	1.467
548.18	1.574
548.38	1.783
548.59	1.279
548.79	1.845
549.00	0.820
549.20	0.846
549.41	1.347
549.61	1.534
549.81	1.255
550.02	0.642
550.22	0.882
550.43	1.473
550.63	1.242
550.84	1.059
551.04	0.678
551.25	1.205
551.45	0.750
551.65	1.000
551.86	1.087
552.06	1.302
552.27	1.123
552.47	0.548
552.68	0.783
552.88	0.739
553.08	1.076
553.29	1.067
553.49	0.948
553.70	0.758
553.90	0.818
554.11	0.479
554.31	1.399
554.51	0.761
554.72	0.451
554.92	0.739
555.13	0.911
555.33	0.714
555.53	0.887
555.74	0.498
555.94	0.565
556.15	0.598
556.35	0.496
556.56	0.362
556.76	0.538
556.96	0.636
557.17	1.100
557.37	0.679
557.58	0.377
557.78	0.691
557.98	0.820
558.19	0.629
558.39	0.497
558.59	0.577
558.80	0.587
559.00	0.754
559.21	0.543
559.41	0.655
559.61	0.377
559.82	0.914
560.02	0.697
560.23	0.554
560.43	0.501
560.63	0.611
560.84	0.878
561.04	0.659
561.24	0.843
561.45	0.981
561.65	0.908
561.85	0.741
562.06	0.145
562.26	0.952
562.47	1.022
562.67	1.045
562.87	1.161
563.08	0.860
563.28	1.082
563.48	1.232
563.69	1.271
563.89	1.571
564.09	2.029
564.30	2.385
564.50	2.669
564.70	2.877
564.91	2.877
565.11	3.509
565.31	3.999
565.52	4.335
565.72	4.412
565.92	5.201
566.13	5.680
566.33	6.009
566.53	6.990
566.74	8.305
566.94	8.200
567.14	9.481
567.35	9.967
567.55	10.710
567.75	11.099
567.96	11.857
568.16	12.453
568.36	13.390
568.57	13.691
568.77	15.131
568.97	15.230
569.18	15.832
569.38	16.795
569.58	16.869
569.79	17.950
569.99	18.576
570.19	19.424
570.39	20.474
570.60	21.541
570.80	21.096
571.00	21.512
571.21	21.220
571.41	21.932
571.61	22.765
571.82	22.909
572.02	23.512
572.22	24.212
572.42	24.546
572.63	24.871
572.83	25.463
573.03	25.639
573.24	26.303
573.44	25.983
573.64	25.619
573.84	25.679
574.05	26.608
574.25	27.234
574.45	27.705
574.66	28.777
574.86	29.111
575.06	29.561
575.26	30.601
575.47	31.431
575.67	31.745
575.87	33.209
576.07	33.900
576.28	32.080
576.48	31.962
576.68	32.366
576.88	33.238
577.09	33.336
577.29	33.531
577.49	34.378
577.69	35.649
577.90	33.596
578.10	35.032
578.30	33.469
578.50	33.917
578.71	35.080
578.91	36.293
579.11	36.027
579.31	36.541
579.52	35.944
579.72	37.473
579.92	36.804
580.12	37.365
580.33	37.481
580.53	37.371
580.73	36.415
580.93	36.689
581.13	36.193
581.34	36.064
581.54	36.157
581.74	35.794
581.94	36.273
582.15	36.593
582.35	36.905
582.55	36.011
582.75	36.956
582.95	36.781
583.16	37.866
583.36	37.789
583.56	37.776
583.76	37.884
583.96	38.250
584.17	38.464
584.37	38.092
584.57	39.022
584.77	38.306
584.97	39.242
585.18	38.647
585.38	39.703
585.58	39.184
585.78	39.528
585.98	41.163
586.19	41.080
586.39	41.625
586.59	41.997
586.79	41.208
586.99	41.752
587.20	42.242
587.40	43.017
587.60	43.437
587.80	43.623
588.00	42.481
588.20	42.333
588.41	44.255
588.61	44.194
588.81	45.542
589.01	44.355
589.21	43.774
589.41	42.751
589.62	41.248
589.82	40.151
590.02	40.306
590.22	40.000
590.42	40.383
590.62	40.652
590.83	40.881
591.03	41.595
591.23	42.206
591.43	43.510
591.63	44.095
591.83	44.661
592.03	42.687
592.24	42.903
592.44	42.465
592.64	41.693
592.84	41.631
593.04	42.110
593.24	43.479
593.44	45.277
593.65	46.543
593.85	48.208
594.05	50.169
594.25	50.695
594.45	50.662
594.65	50.565
594.85	50.760
595.06	50.451
595.26	52.000
595.46	54.127
595.66	54.533
595.86	56.648
596.06	57.503
596.26	57.118
596.46	57.898
596.66	56.415
596.87	57.223
597.07	58.404
597.27	60.520
597.47	60.948
597.67	63.221
597.87	61.967
598.07	61.774
598.27	61.164
598.47	62.030
598.67	62.317
598.88	62.159
599.08	61.557
599.28	60.945
599.48	59.920
599.68	60.026
599.88	59.288
600.08	59.833
600.28	60.230
600.48	60.132
600.68	60.813
600.88	61.114
601.09	61.994
601.29	62.434
601.49	63.191
601.69	62.076
601.89	61.960
602.09	59.449
602.29	59.657
602.49	59.379
602.69	59.081
602.89	59.204
603.09	59.345
603.29	59.294
603.49	59.770
603.69	59.573
603.90	58.840
604.10	59.128
604.30	59.090
604.50	61.175
604.70	61.955
604.90	60.339
605.10	60.735
605.30	60.938
605.50	61.902
605.70	62.119
605.90	63.548
606.10	65.252
606.30	66.048
606.50	66.041
606.70	68.462
606.90	69.019
607.10	69.878
607.30	70.642
607.50	69.615
607.70	68.602
607.90	66.489
608.10	67.201
608.30	66.266
608.50	66.235
608.70	65.534
608.90	64.389
609.11	64.228
609.31	64.671
609.51	65.388
609.71	64.999
609.91	65.487
610.11	67.096
610.31	68.199
610.51	70.279
610.71	73.502
610.91	75.080
611.11	76.409
611.31	75.238
611.51	73.919
611.71	73.198
611.91	72.725
612.11	74.378
612.31	74.275
612.51	74.042
612.71	74.271
612.91	74.042
613.11	72.749
613.31	71.707
613.51	70.254
613.71	69.069
613.91	68.196
614.11	68.548
614.31	67.594
614.50	66.209
614.70	65.893
614.90	66.130
615.10	65.048
615.30	63.626
615.50	62.168
615.70	60.459
615.90	58.481
616.10	56.508
616.30	55.300
616.50	54.422
616.70	53.497
616.90	52.156
617.10	52.201
617.30	51.176
617.50	49.150
617.70	49.993
617.90	48.618
618.10	49.369
618.30	47.976
618.50	45.928
618.70	45.924
618.90	45.326
619.10	43.951
619.30	44.164
619.49	44.248
619.69	43.387
619.89	41.719
620.09	40.369
620.29	40.188
620.49	39.056
620.69	39.196
620.89	40.037
621.09	39.650
621.29	39.027
621.49	36.228
621.69	35.224
621.89	33.531
622.09	31.318
622.29	29.459
622.48	28.429
622.68	27.047
622.88	26.644
623.08	24.752
623.28	22.746
623.48	21.218
623.68	19.481
623.88	17.435
624.08	15.989
624.28	14.889
624.48	14.053
624.67	12.720
624.87	11.402
625.07	10.007
625.27	8.823
625.47	7.493
625.67	6.737
625.87	5.913
626.07	5.331
626.27	4.505
626.47	4.146
626.66	3.387
626.86	2.912
627.06	2.359
627.26	1.701
627.46	1.789
627.66	1.650
627.86	1.415
628.06	1.104
628.25	0.999
628.45	0.840
628.65	0.711
628.85	1.002
629.05	0.891
629.25	0.808
629.45	0.638
629.65	0.665
629.84	0.603
630.04	0.574
630.24	0.457
630.44	0.689
630.64	0.510
630.84	0.393
631.04	0.555
631.23	0.677
631.43	0.531
631.63	0.550
631.83	0.477
632.03	0.745
632.23	0.436
632.42	0.282
632.62	0.431
632.82	0.401
633.02	0.410
633.22	0.367
633.42	0.423
633.62	0.438
633.81	0.353
634.01	0.216
634.21	0.332
634.41	0.359
634.61	0.179
634.80	0.380
635.00	0.332
635.20	0.351
635.40	0.373
635.60	0.282
635.80	0.187
635.99	0.483
636.19	0.212
636.39	0.281
636.59	0.319
636.79	0.365
636.98	0.199
637.18	0.368
637.38	0.150
637.58	0.311
637.78	0.205
637.97	0.309
638.17	0.203
638.37	0.427
638.57	0.205
638.77	0.219
638.96	0.387
639.16	0.436
639.36	0.162
639.56	0.210
639.76	0.250
639.95	0.358
640.15	0.190
640.35	0.075
640.55	0.120
640.75	0.017
640.94	0.431
641.14	0.043
641.34	0.173
641.54	0.044
641.73	0.254
641.93	0.110
642.13	0.166
642.33	0.104
642.53	-0.069
642.72	0.161
642.92	0.153
643.12	0.129
643.32	0.243
643.51	0.018
643.71	0.013
643.91	0.210
644.11	0.090
644.30	0.247
644.50	0.187
644.70	0.004
644.90	0.113
645.09	0.055
645.29	0.161
645.49	0.163
645.69	0.082
645.88	0.099
646.08	0.077
646.28	0.076
646.48	0.189
646.67	0.104
646.87	0.198
647.07	0.304
647.26	0.182
647.46	0.017
647.66	0.066
647.86	0.120
648.05	0.081
648.25	0.032
648.45	-0.145
648.65	0.182
648.84	0.254
649.04	0.013
649.24	0.188
649.43	0.031
649.63	0.133
649.83	-0.150
650.03	0.087
650.22	-0.004
650.42	0.049
650.62	0.072
650.81	-0.022
651.01	0.009
651.21	0.125
651.40	0.116
651.60	0.219
651.80	0.163
652.00	0.202
652.19	-0.009
652.39	0.173
652.59	-0.112
652.78	-0.195
652.98	0.127
653.18	0.046
653.37	-0.058
653.57	0.037
653.77	0.142
653.96	0.013
654.16	-0.044
654.36	0.137
654.55	-0.018
654.75	0.219
654.95	0.174
655.14	0.081
655.34	-0.119
655.54	0.029
655.73	0.190
655.93	0.029
656.13	0.029
656.32	0.050
656.52	0.068
656.72	0.030
656.91	0.051
657.11	0.212
657.31	-0.013
657.50	0.000
657.70	-0.214
657.90	0.124
658.09	0.106
658.29	0.203
658.49	-0.260
658.68	0.151
658.88	-0.081
659.07	0.090
659.27	-0.037
659.47	0.204
659.66	-0.090
659.86	0.158
660.06	0.270
660.25	-0.026
660.45	-0.046
660.64	0.079
660.84	0.123
661.04	-0.179
661.23	-0.087
661.43	0.171
661.63	0.059
661.82	0.000
662.02	0.246
662.21	0.085
662.41	-0.013
662.61	-0.089
662.80	-0.047
663.00	0.179
663.19	0.085
663.39	0.008
663.59	-0.081
663.78	0.185
663.98	-0.198
664.17	0.120
664.37	0.027
664.57	0.134
664.76	-0.145
664.96	0.012
665.15	0.052
665.35	-0.044
665.55	0.004
665.74	0.072
665.94	0.104
666.13	0.040
666.33	0.020
666.53	0.057
666.72	0.258
666.92	-0.038
667.11	0.085
667.31	-0.046
667.50	0.043
667.70	-0.051
667.90	-0.087
668.09	0.100
668.29	-0.087
668.48	0.141
668.68	0.189
668.87	-0.070
669.07	-0.009
669.26	0.004
669.46	-0.080
669.66	-0.098
669.85	0.060
670.05	-0.013
670.24	0.094
670.44	0.017
670.63	0.140
670.83	0.131
671.02	0.092
671.22	0.045
671.42	-0.109
671.61	-0.090
671.81	0.085
672.00	-0.052
672.20	-0.034
672.39	0.117
672.59	0.000
672.78	0.050
672.98	-0.132
673.17	-0.082
673.37	-0.111
673.56	0.298
673.76	-0.054
673.95	-0.067
674.15	-0.133
674.34	0.017
674.54	-0.074
674.73	0.016
674.93	-0.096
675.13	-0.160
675.32	-0.158
675.52	-0.102
675.71	-0.173
675.91	-0.086
676.10	-0.134
676.30	0.012
676.49	-0.092
676.69	0.124
676.88	-0.143
677.08	-0.136
677.27	-0.078
677.47	-0.074
677.66	-0.033
677.86	0.232
678.05	-0.084
678.24	0.004
678.44	0.055
678.63	-0.106
678.83	0.008
679.02	0.196
679.22	0.178
679.41	0.004
679.61	-0.181
679.80	-0.125
680.00	-0.017
680.19	-0.095
680.39	-0.047
680.58	-0.042
680.78	-0.021
680.97	-0.135
681.17	-0.008
681.36	0.025
681.56	-0.174
681.75	0.076
681.94	-0.102
682.14	-0.281
682.33	-0.084
682.53	-0.083
682.72	-0.169
682.92	0.049
683.11	-0.255
683.31	-0.202
683.50	-0.192
683.69	0.093
683.89	-0.024
684.08	-0.141
684.28	-0.117
684.47	-0.216
684.67	-0.066
684.86	-0.029
685.06	0.078
685.25	0.066
685.44	-0.087
685.64	-0.140
685.83	0.062
686.03	-0.170
686.22	0.088
686.42	-0.147
686.61	-0.139
686.80	-0.042
687.00	0.041
687.19	0.145
687.39	0.062
687.58	0.165
687.77	0.195
687.97	-0.088
688.16	-0.052
688.36	-0.146
688.55	-0.117
688.74	-0.017
688.94	-0.164
689.13	-0.030
689.33	-0.017
689.52	-0.157
689.71	-0.310
689.91	0.012
690.10	-0.008
690.30	-0.040
690.49	-0.049
690.68	-0.079
690.88	-0.181
691.07	-0.214
691.27	0.013
691.46	-0.253
691.65	-0.061
691.85	-0.127
692.04	0.075
692.23	-0.053
692.43	-0.206
692.62	-0.022
692.82	-0.209
693.01	-0.186
693.20	-0.087
693.40	0.008
693.59	-0.193
693.78	-0.004
693.98	-0.310
694.17	0.113
694.36	-0.355
694.56	-0.053
694.75	-0.126
694.94	-0.064
695.14	-0.131
695.33	0.004
695.53	-0.080
695.72	-0.182
695.91	0.107
696.11	0.021
696.30	-0.068
696.49	0.132
696.69	-0.042
696.88	-0.156
697.07	-0.064
697.27	0.058
697.46	-0.247
697.65	0.097
697.85	-0.040
698.04	-0.028
698.23	0.049
698.43	-0.109
698.62	0.057
698.81	0.000
699.01	-0.078
699.20	0.161
699.39	0.077
699.58	0.101
699.78	-0.130
699.97	-0.075
700.16	-0.110
700.36	-0.064
700.55	-0.013
700.74	0.012
700.94	0.128
701.13	0.038
701.32	-0.099
701.52	-0.099
701.71	-0.082
701.90	-0.069
702.09	-0.033
702.29	-0.173
702.48	0.041
702.67	0.033
702.87	-0.201
703.06	-0.144
703.25	0.070
703.44	0.053
703.64	0.037
703.83	-0.119
704.02	0.075
704.22	-0.043
704.41	0.065
704.60	-0.018
704.79	-0.066
704.99	-0.058
705.18	-0.044
705.37	-0.017
705.56	0.120
705.76	0.008
705.95	0.012
706.14	-0.079
706.33	-0.187
706.53	-0.096
706.72	0.092
706.91	0.088
707.11	0.187
707.30	0.009
707.49	0.137
707.68	-0.061
707.88	0.087
708.07	0.109
708.26	-0.021
708.45	0.026
708.64	0.029
708.84	0.201
709.03	0.100
709.22	0.228
709.41	0.042
709.61	-0.181
709.80	0.021
709.99	-0.149
710.18	0.237
710.38	-0.091
710.57	0.074
710.76	-0.070
710.95	-0.030
711.14	-0.079
711.34	0.131
711.53	-0.145
711.72	0.033
711.91	-0.229
712.11	0.200
712.30	-0.013
712.49	-0.094
712.68	0.065
712.87	0.113
713.07	-0.061
713.26	-0.168
713.45	0.079
713.64	0.146
713.83	0.139
714.03	0.251
714.22	-0.103
714.41	0.022
714.60	-0.073
714.79	0.104
714.99	0.188
715.18	0.000
715.37	0.127
715.56	0.266
715.75	0.107
715.94	0.260
716.14	0.413
716.33	0.126
716.52	0.059
716.71	0.224
716.90	0.263
717.10	0.374
717.29	0.300
717.48	0.063
717.67	0.294
717.86	0.346
718.05	0.172
718.24	0.358
718.44	0.177
718.63	0.336
718.82	0.452
719.01	0.208
719.20	0.443
719.39	0.330
719.59	0.361
719.78	0.305
719.97	0.287
720.16	0.215
720.35	0.196
720.54	0.413
720.73	0.117
720.93	0.608
721.12	0.530
721.31	0.540
721.50	0.388
721.69	0.337
721.88	0.182
722.07	0.221
722.27	0.459
722.46	0.133
722.65	0.303
722.84	0.349
723.03	0.412
723.22	0.128
723.41	0.441
723.60	0.346
723.79	0.412
723.99	0.406
724.18	0.289
724.37	0.183
724.56	0.274
724.75	0.601
724.94	0.367
725.13	0.507
725.32	0.409
725.51	0.554
725.71	0.330
725.90	0.661
726.09	0.732
726.28	0.513
726.47	0.649
726.66	0.686
726.85	0.864
727.04	1.057
727.23	1.215
727.42	1.066
727.61	1.105
727.81	1.301
728.00	1.527
728.19	1.204
728.38	1.192
728.57	1.405
728.76	1.526
728.95	1.648
729.14	1.443
729.33	1.828
729.52	1.890
729.71	1.880
729.90	1.945
730.09	1.907
730.28	1.873
730.48	2.031
730.67	2.214
730.86	2.184
731.05	2.086
731.24	2.466
731.43	2.284
731.62	2.343
731.81	2.424
732.00	2.378
732.19	2.410
732.38	2.504
732.57	2.502
732.76	2.808
732.95	2.445
733.14	2.704
733.33	2.612
733.52	2.792
733.71	2.713
733.90	2.552
734.09	2.453
734.28	2.398
734.47	2.654
734.66	2.478
734.85	2.560
735.04	2.701
735.23	2.797
735.42	3.054
735.61	2.801
735.81	2.871
736.00	3.072
736.19	3.007
736.38	3.464
736.57	3.614
736.76	3.369
736.95	3.966
737.14	3.965
737.33	4.779
737.52	4.753
737.71	5.010
737.90	5.544
738.09	5.770
738.28	6.370
738.47	6.962
738.66	7.534
738.85	7.982
739.04	8.406
739.22	9.323
739.41	9.968
739.60	10.142
739.79	11.093
739.98	10.971
740.17	11.570
740.36	12.030
740.55	12.572
740.74	13.179
740.93	13.897
741.12	14.338
741.31	15.060
741.50	15.380
741.69	15.788
741.88	16.118
742.07	16.790
742.26	17.779
742.45	17.648
742.64	18.155
742.83	18.697
743.02	19.254
743.21	19.825
743.40	20.260
743.59	21.719
743.78	22.493
743.97	22.075
744.16	22.783
744.34	23.510
744.53	24.191
744.72	24.034
744.91	24.854
745.10	24.084
745.29	24.650
745.48	24.934
745.67	24.837
745.86	25.295
746.05	24.879
746.24	23.687
746.43	23.954
746.62	23.591
746.81	23.904
747.00	24.436
747.18	25.192
747.37	24.317
747.56	24.835
747.75	25.255
747.94	26.067
748.13	26.300
748.32	27.102
748.51	27.381
748.70	27.842
748.89	27.418
749.08	27.881
749.26	27.047
749.45	26.998
749.64	27.725
749.83	27.697
750.02	28.588
750.21	29.202
750.40	30.819
750.59	29.730
750.78	31.315
750.96	31.238
751.15	31.584
751.34	31.099
751.53	30.694
751.72	31.351
751.91	30.491
752.10	30.046
752.29	30.555
752.47	29.464
752.66	29.174
752.85	28.690
753.04	28.261
753.23	30.088
753.42	29.507
753.61	30.499
753.80	30.824
753.98	31.064
754.17	30.333
754.36	30.747
754.55	30.143
754.74	30.245
754.93	30.234
755.12	30.977
755.30	30.418
755.49	30.865
755.68	30.413
755.87	29.782
756.06	30.351
756.25	29.618
756.43	29.424
756.62	29.675
756.81	29.753
757.00	29.048
757.19	28.540
757.38	27.434
757.56	26.801
757.75	26.967
757.94	26.256
758.13	25.807
758.32	26.318
758.51	25.385
758.69	25.596
758.88	24.893
759.07	25.850
759.26	24.285
759.45	23.842
759.63	24.590
759.82	24.391
760.01	24.036
760.20	23.606
760.39	23.545
760.57	22.501
760.76	23.133
760.95	22.935
761.14	22.155
761.33	20.979
761.51	20.876
761.70	19.513
761.89	18.727
762.08	18.642
762.27	19.234
762.45	17.151
762.64	17.255
762.83	16.201
763.02	16.943
763.21	16.597
763.39	16.086
763.58	16.099
763.77	15.991
763.96	15.666
764.14	15.485
764.33	14.579
764.52	15.457
764.71	14.455
764.89	14.686
765.08	14.198
765.27	13.203
765.46	14.335
765.65	15.942
765.83	15.302
766.02	14.999
766.21	14.836
766.40	15.885
766.58	15.981
766.77	16.548
766.96	17.125
767.15	18.014
767.33	18.803
767.52	19.083
767.71	18.957
767.90	18.928
768.08	20.152
768.27	20.308
768.46	19.865
768.64	19.444
768.83	19.951
769.02	22.087
769.21	21.730
769.39	22.237
769.58	21.753
769.77	23.805
769.96	24.139
770.14	22.901
770.33	23.692
770.52	22.863
770.70	23.627
770.89	23.439
771.08	22.340
771.27	24.316
771.45	23.729
771.64	22.930
771.83	22.843
772.01	24.034
772.20	23.358
772.39	21.135
772.57	21.207
772.76	21.609
772.95	21.565
773.14	21.373
773.32	21.228
773.51	21.957
773.70	20.340
773.88	19.401
774.07	19.709
774.26	19.191
774.44	18.078
774.63	18.166
774.82	17.099
775.00	17.851
775.19	15.913
775.38	15.776
775.56	14.980
775.75	15.931
775.94	14.424
776.12	16.037
776.31	16.520
776.50	17.146
776.68	18.047
776.87	17.441
777.06	16.839
777.24	16.030
777.43	17.293
777.62	18.736
777.80	18.122
777.99	17.975
778.18	20.004
778.36	18.813
778.55	19.300
778.74	19.670
778.92	20.627
779.11	22.994
779.29	19.310
779.48	22.084
779.67	21.382
779.85	21.801
780.04	22.976
780.23	24.969
780.41	24.553
780.60	24.292
780.79	24.079
780.97	25.481
781.16	26.195
781.34	26.933
781.53	26.533
781.72	28.071
781.90	29.262
782.09	30.052
782.28	28.483
782.46	30.090
782.65	30.729
782.83	30.107
783.02	30.002
783.21	31.574
783.39	32.058
783.58	31.044
783.76	32.448
783.95	32.918
784.14	32.170
784.32	30.973
784.51	30.797
784.69	30.309
784.88	29.929
785.06	29.042
785.25	28.864
785.44	29.561
785.62	27.490
785.81	29.235
785.99	27.999
786.18	28.207
786.37	29.072
786.55	31.798
786.74	29.773
786.92	30.789
787.11	30.734
787.29	29.632
787.48	30.939
787.67	30.266
787.85	30.144
788.04	30.928
788.22	29.697
788.41	29.888
788.59	29.942
788.78	31.155
788.96	31.325
789.15	31.483
789.34	32.142
789.52	30.513
789.71	32.979
789.89	32.065
790.08	30.268
790.26	30.312
790.45	30.614
790.63	30.857
790.82	31.809
791.00	32.657
791.19	33.180
791.38	33.779
791.56	34.438
791.75	34.586
791.93	36.298
792.12	37.831
792.30	36.478
792.49	37.841
792.67	38.583
792.86	35.910
793.04	36.738
793.23	36.546
793.41	37.517
793.60	37.797
793.78	37.981
793.97	38.853
794.15	40.935
794.34	42.340
794.52	41.739
794.71	41.687
794.89	41.585
795.08	40.523
795.26	41.254
795.45	42.707
795.63	42.126
795.82	41.240
796.00	41.866
796.19	43.931
796.37	43.900
796.56	46.467
796.74	46.309
796.93	48.252
797.11	47.330
797.30	47.834
797.48	46.305
797.67	46.835
797.85	47.280
798.04	47.270
798.22	46.784
798.41	46.884
798.59	47.733
798.77	49.090
798.96	50.769
799.14	51.033
799.33	52.215
799.51	52.627
799.70	52.687
799.88	55.108
800.07	52.627
800.25	54.812
800.44	54.723
800.62	53.643
800.80	54.076
800.99	54.134
801.17	54.191
801.36	54.994
801.54	56.280
801.73	55.967
801.91	58.147
802.10	57.998
802.28	58.681
802.46	56.557
802.65	55.966
802.83	55.835
803.02	54.179
803.20	51.381
803.39	50.166
803.57	51.236
803.75	50.224
803.94	48.645
804.12	48.942
804.31	46.971
804.49	45.139
804.67	44.975
804.86	44.017
805.04	44.541
805.23	42.754
805.41	42.929
805.59	40.123
805.78	40.639
805.96	40.087
806.15	38.159
806.33	38.871
806.51	37.533
806.70	38.337
806.88	38.307
807.07	37.695
807.25	37.437
807.43	36.671
807.62	37.949
807.80	36.003
807.99	34.105
808.17	34.865
808.35	34.614
808.54	34.901
808.72	33.898
808.90	34.472
809.09	34.941
809.27	34.224
809.46	33.183
809.64	34.413
809.82	33.684
810.01	35.124
810.19	35.000
810.37	34.220
810.56	34.854
810.74	35.616
810.92	35.842
811.11	36.788
811.29	36.751
811.48	36.038
811.66	38.976
811.84	38.005
812.03	38.105
812.21	39.354
812.39	40.110
812.58	39.487
812.76	41.429
812.94	38.913
813.13	38.957
813.31	40.684
813.49	39.950
813.68	39.345
813.86	39.297
814.04	38.942
814.23	38.688
814.41	38.997
814.59	40.252
814.78	40.115
814.96	40.485
815.14	41.939
815.33	40.592
815.51	41.303
815.69	41.886
815.87	41.711
816.06	39.489
816.24	40.076
816.42	40.492
816.61	39.146
816.79	39.172
816.97	38.416
817.16	39.616
817.34	38.707
817.52	39.696
817.70	38.811
817.89	37.751
818.07	38.801
818.25	38.165
818.44	36.339
818.62	36.174
818.80	35.430
818.98	35.846
819.17	35.991
819.35	36.680
819.53	36.466
819.72	36.060
819.90	36.858
820.08	37.425
820.26	36.422
820.45	37.025
820.63	35.203
820.81	37.294
820.99	37.690
821.18	35.689
821.36	35.688
821.54	34.803
821.73	36.387
821.91	36.338
822.09	35.724
822.27	36.839
822.46	35.736
822.64	36.931
822.82	35.209
823.00	35.305
823.19	36.934
823.37	35.816
823.55	36.929
823.73	36.283
823.91	37.088
824.10	38.014
824.28	39.616
824.46	38.893
824.64	40.843
824.83	39.302
825.01	40.076
825.19	41.796
825.37	42.062
825.56	41.762
825.74	43.227
825.92	41.893
826.10	42.197
826.28	42.923
826.47	43.885
826.65	42.959
826.83	41.519
827.01	44.561
827.19	42.389
827.38	43.047
827.56	41.415
827.74	43.630
827.92	41.309
828.10	43.390
828.29	43.582
828.47	44.539
828.65	42.476
828.83	43.025
829.01	43.340
829.20	44.829
829.38	42.743
829.56	41.660
829.74	43.921
829.92	44.762
830.10	42.358
830.29	40.772
830.47	42.445
830.65	41.088
830.83	40.778
831.01	39.974
831.20	39.873
831.38	39.939
831.56	37.666
831.74	39.753
831.92	40.077
832.10	39.543
832.29	41.000
832.47	42.054
832.65	43.907
832.83	40.436
833.01	42.385
833.19	40.846
833.37	39.390
833.56	42.957
833.74	40.573
833.92	43.206
834.10	45.194
834.28	44.128
834.46	43.919
834.64	44.711
834.83	44.879
835.01	45.686
835.19	48.356
835.37	49.557
835.55	50.619
835.73	50.615
835.91	52.671
836.09	52.012
836.28	51.564
836.46	50.769
836.64	52.147
836.82	51.679
837.00	49.733
837.18	51.135
837.36	54.164
837.54	54.502
837.72	55.153
837.91	54.190
838.09	56.126
838.27	56.650
838.45	56.781
838.63	56.410
838.81	56.217
838.99	56.612
839.17	58.499
839.35	60.848
839.53	60.427
839.72	60.269
839.90	58.572
840.08	58.379
840.26	60.820
840.44	57.987
840.62	58.166
840.80	55.626
840.98	57.240
841.16	55.148
841.34	56.778
841.52	57.765
841.70	57.336
841.89	57.639
842.07	58.642
842.25	57.218
842.43	56.434
842.61	57.288
842.79	59.828
842.97	59.130
843.15	56.934
843.33	59.767
843.51	56.971
843.69	60.160
843.87	64.035
844.05	62.229
844.23	61.755
844.41	62.724
844.59	61.011
844.77	63.348
844.95	65.062
845.13	66.833
845.31	67.175
845.50	65.872
845.68	67.290
845.86	65.683
846.04	60.206
846.22	60.546
846.40	61.570
846.58	57.594
846.76	60.634
846.94	55.442
847.12	57.165
847.30	55.908
847.48	54.299
847.66	54.224
847.84	55.661
848.02	55.828
848.20	54.250
848.38	54.518
848.56	54.285
848.74	53.840
848.92	52.387
849.10	54.788
849.28	55.909
849.46	55.078
849.64	53.989
849.82	53.990
850.00	53.811
850.18	54.557
850.36	52.758
850.54	47.585
850.72	49.057
850.90	49.626
851.08	49.005
851.26	51.143
851.44	51.995
851.62	51.018
851.80	54.297
851.98	53.400
852.16	55.703
852.34	52.829
852.52	52.506
852.70	52.134
852.87	54.235
853.05	54.501
853.23	55.160
853.41	55.807
853.59	54.243
853.77	58.638
853.95	60.217
854.13	59.675
854.31	59.880
854.49	54.970
854.67	57.517
854.85	55.298
855.03	57.429
855.21	57.044
855.39	57.093
855.57	54.232
855.75	56.014
855.93	53.503
856.11	52.902
856.28	55.379
856.46	53.349
856.64	53.721
856.82	50.600
857.00	51.654
857.18	48.111
857.36	49.801
857.54	50.000
857.72	48.444
857.90	47.469
858.08	48.363
858.26	46.883
858.44	50.383
858.61	41.513
858.79	44.622
858.97	47.368
859.15	45.698
859.33	43.482
859.51	44.067
859.69	42.176
859.87	41.895
860.05	42.339
860.23	41.471
860.40	41.238
860.58	38.085
860.76	39.137
860.94	36.544
861.12	37.622
861.30	37.643
861.48	38.453
861.66	36.570
861.84	34.918
862.01	38.408
862.19	38.952
862.37	36.724
862.55	35.179
862.73	36.339
862.91	35.968
863.09	37.047
863.27	36.120
863.44	36.605
863.62	35.950
863.80	37.427
863.98	36.873
864.16	34.889
864.34	36.279
864.52	36.742
864.69	38.595
864.87	39.695
865.05	38.028
865.23	38.358
865.41	39.480
865.59	40.385
865.76	37.675
865.94	38.420
866.12	41.414
866.30	42.515
866.48	41.533
866.66	38.980
866.83	42.043
867.01	41.610
867.19	39.317
867.37	41.286
867.55	41.929
867.73	40.333
867.90	40.498
868.08	40.421
868.26	42.867
868.44	43.130
868.62	43.857
868.79	44.508
868.97	45.000
869.15	46.892
869.33	47.303
869.51	45.827
869.69	46.588
869.86	45.170
870.04	47.653
870.22	46.875
870.40	53.321
870.57	49.284
870.75	51.757
870.93	52.981
871.11	53.158
871.29	53.266
871.46	50.608
871.64	54.598
871.82	52.437
872.00	55.660
872.18	56.329
872.35	56.388
872.53	55.535
872.71	53.868
872.89	56.965
873.06	56.544
873.24	54.615
873.42	55.201
873.60	55.112
873.77	55.323
873.95	54.458
874.13	54.124
874.31	53.454
874.49	51.619
874.66	53.802
874.84	52.357
875.02	51.407
875.20	52.206
875.37	52.933
875.55	52.515
875.73	53.515
875.91	50.918
876.08	54.764
876.26	53.773
876.44	59.741
876.61	55.756
876.79	49.911
876.97	51.008
877.15	49.804
877.32	49.136
877.50	48.451
877.68	45.386
877.86	45.347
878.03	48.251
878.21	46.959
878.39	43.220
878.56	46.393
878.74	45.377
878.92	47.559
879.10	45.150
879.27	43.569
879.45	44.623
879.63	44.612
879.80	45.545
879.98	45.584
880.16	47.204
880.34	48.251
880.51	48.053
880.69	48.385
880.87	48.861
881.04	48.691
881.22	50.780
881.40	50.469
881.57	50.580
881.75	52.110
881.93	52.542
882.10	52.381
882.28	50.417
882.46	49.361
882.63	50.054
882.81	50.635
882.99	53.068
883.16	52.646
883.34	52.171
883.52	52.695
883.69	53.174
883.87	55.246
884.05	56.796
884.22	55.531
884.40	56.422
884.58	54.698
884.75	55.028
884.93	56.760
885.11	56.832
885.28	56.524
885.46	54.829
885.64	56.316
885.81	53.277
885.99	54.687
886.17	56.479
886.34	54.887
886.52	52.196
886.70	53.618
886.87	51.102
887.05	49.514
887.22	50.637
887.40	47.041
887.58	47.736
887.75	49.342
887.93	47.786
888.11	45.013
888.28	47.261
888.46	46.283
888.63	45.540
888.81	45.477
888.99	45.658
889.16	45.161
889.34	47.428
889.51	46.135
889.69	46.488
889.87	45.730
890.04	47.613
890.22	44.796
890.39	46.989
890.57	46.829
890.75	47.374
890.92	48.493
891.10	44.313
891.27	49.020
891.45	47.582
891.63	48.190
891.80	44.460
891.98	46.627
892.15	42.509
892.33	46.528
892.51	46.952
892.68	46.248
892.86	48.060
893.03	46.687
893.21	48.703
893.38	49.966
893.56	47.671
893.74	49.813
893.91	53.482
894.09	49.071
894.26	50.101
894.44	49.357
894.61	49.648
894.79	49.886
894.96	50.399
895.14	50.897
895.32	52.404
895.49	50.302
895.67	51.808
895.84	52.423
896.02	52.647
896.19	53.443
896.37	51.932
896.54	53.282
896.72	52.277
896.89	50.860
897.07	51.061
897.25	49.428
897.42	51.255
897.60	51.851
897.77	52.248
897.95	51.621
898.12	52.960
898.30	51.634
898.47	54.987
898.65	51.265
898.82	48.742
899.00	50.881
899.17	50.239
899.35	50.350
899.52	51.630
899.70	48.259
899.87	47.718
900.05	50.445
900.22	47.883
900.40	45.146
900.57	49.232
900.75	47.775
900.92	47.795
901.10	47.557
901.27	46.723
901.45	47.245
901.62	48.523
901.80	41.623
901.97	43.199
902.15	44.018
902.32	42.202
902.50	42.786
902.67	42.699
902.85	43.731
903.02	43.504
903.20	45.215
903.37	46.272
903.54	45.607
903.72	42.299
903.89	42.461
904.07	48.081
904.24	46.824
904.42	44.383
904.59	43.097
904.77	43.404
904.94	40.256
905.12	42.241
905.29	38.419
905.47	39.601
905.64	37.916
905.81	38.206
905.99	40.624
906.16	36.877
906.34	41.505
906.51	40.948
906.69	41.624
906.86	39.791
907.03	43.848
907.21	40.105
907.38	41.300
907.56	38.750
907.73	41.018
907.91	42.851
908.08	38.445
908.25	38.344
908.43	40.662
908.60	42.126
908.78	41.212
908.95	40.117
909.13	42.747
909.30	42.833
909.47	41.456
909.65	43.758
909.82	37.578
910.00	41.599
910.17	43.542
910.34	44.369
910.52	42.832
910.69	40.581
910.87	43.786
911.04	45.361
911.21	43.283
911.39	44.911
911.56	41.557
911.73	43.251
911.91	46.057
912.08	42.044
912.26	45.742
912.43	43.818
912.60	47.687
912.78	46.738
912.95	44.424
913.13	42.819
913.30	47.351
913.47	50.024
913.65	50.119
913.82	48.415
913.99	48.080
914.17	46.061
914.34	47.175
914.51	46.135
914.69	46.534
914.86	44.191
915.03	45.265
915.21	41.778
915.38	43.585
915.56	43.714
915.73	46.363
915.90	44.806
916.08	46.084
916.25	48.040
916.42	44.751
916.60	44.550
916.77	45.558
916.94	47.431
917.12	44.613
917.29	46.959
917.46	49.236
917.64	45.877
917.81	50.586
917.98	49.872
918.16	47.810
918.33	49.574
918.50	49.787
918.67	49.045
918.85	47.325
919.02	49.369
919.19	51.835
919.37	49.522
919.54	52.798
919.71	46.504
919.89	51.327
920.06	48.917
920.23	44.072
920.41	45.265
920.58	44.640
920.75	48.825
920.92	45.270
921.10	46.264
921.27	43.598
921.44	49.476
921.62	45.905
921.79	46.690
921.96	46.406
922.13	47.177
922.31	46.082
922.48	47.268
922.65	50.030
922.82	42.623
923.00	41.566
923.17	48.365
923.34	45.221
923.52	47.894
923.69	49.778
923.86	45.466
924.03	48.158
924.21	47.047
924.38	48.736
924.55	44.767
924.72	47.028
924.90	51.071
925.07	50.728
925.24	54.455
925.41	49.550
925.59	51.556
925.76	52.003
925.93	55.147
926.10	54.267
926.28	54.011
926.45	52.531
926.62	47.554
926.79	50.794
926.96	50.421
927.14	55.243
927.31	51.385
927.48	47.829
927.65	50.718
927.83	53.029
928.00	48.735
928.17	50.929
928.34	50.656
928.51	53.535
928.69	51.160
928.86	55.133
929.03	56.635
929.20	55.226
929.37	54.829
929.55	55.207
929.72	56.528
929.89	52.826
930.06	54.673
930.23	51.577
930.41	46.878
930.58	50.853
930.75	54.576
930.92	47.181
931.09	52.490
931.27	51.044
931.44	50.086
931.61	47.413
931.78	41.838
931.95	50.987
932.12	45.698
932.30	47.332
932.47	42.037
932.64	43.025
932.81	43.870
932.98	45.934
933.16	45.074
933.33	49.113
933.50	49.453
933.67	47.303
933.84	46.474
934.01	48.285
934.18	38.612
934.36	45.627
934.53	45.170
934.70	44.444
934.87	46.161
935.04	49.763
935.21	43.898
935.38	42.857
935.56	43.435
935.73	42.289
935.90	41.087
936.07	38.163
936.24	41.083
936.41	40.041
936.58	39.870
936.76	44.524
936.93	41.503
937.10	41.871
937.27	41.391
937.44	40.520
937.61	38.347
937.78	35.287
937.95	42.924
938.13	51.375
938.30	44.835
938.47	39.264
938.64	42.809
938.81	43.269
938.98	45.935
939.15	42.444
939.32	45.503
939.49	42.473
939.66	41.649
939.84	41.646
940.01	41.379
940.18	39.308
940.35	41.191
940.52	41.304
940.69	40.484
940.86	45.776
941.03	40.286
941.20	38.877
941.37	43.195
941.54	48.272
941.71	44.483
941.89	46.109
942.06	44.612
942.23	47.342
942.40	45.057
942.57	49.688
942.74	57.737
942.91	50.953
943.08	57.107
943.25	50.567
943.42	61.938
943.59	49.017
943.76	56.680
943.93	53.206
944.10	56.878
944.27	58.579
944.44	54.651
944.61	53.095
944.79	51.549
944.96	61.961
945.13	58.279
945.30	60.976
945.47	53.973
945.64	57.444
945.81	57.618
945.98	67.586
946.15	61.528
946.32	65.090
946.49	64.860
946.66	66.513
946.83	54.945
947.00	58.852
947.17	60.857
947.34	64.774
947.51	63.093
947.68	56.151
947.85	60.060
948.02	60.357
948.19	57.870
948.36	67.174
948.53	67.647
948.70	81.720
948.87	63.054
949.04	61.424
949.21	61.386
949.38	59.694
949.55	63.923
949.72	66.557
949.89	52.969
950.06	62.787
950.23	64.646
950.40	55.887
950.57	62.523
950.74	66.608
950.91	61.949
951.08	59.930
951.25	64.829
951.42	75.614
951.59	69.801
951.76	71.717
951.93	58.993
952.10	64.674
952.27	64.912
952.44	64.082
952.61	63.871
952.77	71.537
952.94	75.203
953.11	64.000
953.28	58.491
953.45	82.927
953.62	56.261
953.79	67.593
953.96	56.641
954.13	68.008
954.30	68.145
954.47	64.071
954.64	71.538
954.81	68.612
954.98	65.378
955.15	70.200
955.32	55.536
955.49	72.211
955.65	65.800
955.82	64.562
955.99	59.002
956.16	63.905
956.33	53.280
956.50	59.533
956.67	64.185
956.84	52.996
957.01	59.063
957.18	56.660
957.35	56.452
957.52	58.233
957.68	63.393
957.85	52.340
958.02	59.900
958.19	53.659
958.36	56.635
958.53	57.292
958.70	52.677
958.87	50.783
959.04	53.333
959.21	47.797
959.37	73.766
959.54	54.713
959.71	51.185
959.88	57.918
960.05	55.582
960.22	60.194
960.39	46.860
960.56	53.947
960.72	46.154
960.89	43.949
961.06	56.667
961.23	43.537
961.40	47.464
961.57	42.130
961.74	40.909
961.90	41.818
962.07	37.342
962.24	47.148
962.41	48.124
962.58	35.684
962.75	45.188
962.92	47.495
963.08	51.236
963.25	46.855
963.42	39.089
963.59	41.525
963.76	43.341
963.93	39.450
964.10	44.186
964.26	35.983
964.43	44.573
964.60	43.059
964.77	48.148
964.94	43.868
965.10	42.769
965.27	35.698
965.44	40.547
965.61	45.924
965.78	38.864
965.95	43.437
966.11	51.152
966.28	39.889
966.45	31.768
966.62	39.904
966.79	35.979
966.95	40.724
967.12	45.946
967.29	45.805
967.46	31.674
967.63	31.064
967.79	40.781
967.96	46.681
968.13	39.571
968.30	38.583
968.47	45.417
968.63	40.938
968.80	41.683
968.97	51.708
969.14	45.149
969.31	42.094
969.47	41.794
969.64	38.677
969.81	45.243
969.98	32.108
970.14	54.230
970.31	43.913
970.48	39.062
970.65	38.118
970.81	39.583
970.98	35.118
971.15	34.172
971.32	40.000
971.48	34.286
971.65	36.388
971.82	40.406
971.99	37.566
972.15	44.181
972.32	32.160
972.49	42.644
972.66	37.277
972.82	42.889
972.99	38.588
973.16	35.684
973.33	43.365
973.49	27.960
973.66	42.857
973.83	38.265
974.00	41.216
974.16	51.136
974.33	35.475
974.50	43.961
974.67	38.025
974.83	51.332
975.00	47.608
975.17	43.908
975.33	55.374
975.50	44.086
975.67	56.912
975.84	37.821
976.00	47.765
976.17	46.588
976.34	57.538
976.50	49.724
976.67	44.954
976.84	46.429
977.00	44.444
977.17	47.042
977.34	41.148
977.50	43.164
977.67	52.968
977.84	50.716
978.01	47.382
978.17	57.683
978.34	56.328
978.51	53.511
978.67	53.899
978.84	41.839
979.01	43.396
979.17	59.579
979.34	46.891
979.51	45.500
979.67	53.883
979.84	58.670
980.01	48.064
980.17	47.126
980.34	50.781
980.51	58.661
980.67	54.026
980.84	56.082
981.01	55.303
981.17	48.431
981.34	43.579
981.50	53.606
981.67	50.124
981.84	39.120
982.00	51.289
982.17	44.020
982.34	54.439
982.50	55.691
982.67	42.377
982.84	58.411
983.00	58.486
983.17	45.413
983.33	49.333
983.50	45.964
983.67	47.577
983.83	50.557
984.00	52.885
984.17	38.627
984.33	43.000
984.50	48.203
984.66	59.794
984.83	46.368
985.00	56.222
985.16	52.911
985.33	50.909
985.49	51.380
985.66	57.859
985.83	59.631
985.99	46.377
986.16	50.294
986.32	50.803
986.49	42.308
986.66	55.125
986.82	45.633
986.99	43.124
987.15	55.374
987.32	53.066
987.49	44.344
987.65	53.147
987.82	47.165
987.98	51.174
988.15	64.377
988.31	45.626
988.48	54.502
988.65	50.265
988.81	57.271
988.98	42.012
989.14	45.735
989.31	46.838
989.47	41.827
989.64	43.694
989.80	52.582
989.97	42.208
990.14	49.362
990.30	51.442
990.47	44.903
990.63	50.812
990.80	60.206
990.96	45.853
991.13	49.330
991.29	54.869
991.46	59.382
991.62	51.163
991.79	56.367
991.95	62.528
992.12	48.980
992.29	49.593
992.45	64.908
992.62	50.224
992.78	48.008
992.95	61.244
993.11	47.427
993.28	74.572
993.44	58.862
993.61	57.261
993.77	64.136
993.94	53.547
994.10	54.219
994.27	65.037
994.43	57.173
994.60	60.500
994.76	57.275
994.93	54.670
995.09	65.499
995.26	57.524
995.42	57.178
995.59	56.992
995.75	64.583
995.92	49.647
996.08	42.588
996.25	63.210
996.41	55.147
996.58	57.991
996.74	47.134
996.91	52.480
997.07	59.756
997.23	55.637
997.40	50.552
997.56	45.794
997.73	64.750
997.89	49.441
998.06	47.357
998.22	57.002
998.39	41.387
998.55	57.506
998.72	41.589
998.88	65.500
999.05	54.333
999.21	50.835
999.37	54.787
999.54	50.000
999.70	47.484
999.87	55.276
1000.03	57.534
1000.20	57.933
1000.36	60.671
1000.52	58.996
1000.69	63.232
1000.85	61.123
1001.02	55.936
1001.18	60.612
1001.35	60.722
1001.51	57.684
1001.67	64.143
1001.84	52.110
1002.00	56.513
1002.17	59.862
1002.33	59.953
1002.50	58.916
1002.66	59.716
1002.82	58.794
1002.99	62.133
1003.15	55.639
1003.32	60.401
1003.48	52.153
1003.64	43.257
1003.81	51.124
1003.97	51.370
1004.14	60.427
1004.30	48.157
1004.46	65.013
1004.63	50.649
1004.79	56.053
1004.95	57.841
1005.12	57.692
1005.28	52.356
1005.45	59.217
1005.61	59.902
1005.77	53.695
1005.94	50.673
1006.10	50.882
1006.26	50.839
1006.43	49.763
1006.59	55.337
1006.76	45.910
1006.92	47.765
1007.08	52.153
1007.25	50.331
1007.41	45.084
1007.57	53.676
1007.74	56.171
1007.90	55.155
1008.06	55.990
1008.23	63.590
1008.39	56.485
1008.55	54.147
1008.72	46.384
1008.88	54.000
1009.04	63.931
1009.21	60.143
1009.37	57.895
1009.53	58.513
1009.70	72.849
1009.86	76.190
1010.02	49.431
1010.19	62.571
1010.35	50.737
1010.51	59.189
1010.68	62.879
1010.84	54.068
1011.00	58.205
1011.17	58.449
1011.33	64.548
1011.49	57.062
1011.66	59.744
1011.82	56.522
1011.98	63.142
1012.14	47.397
1012.31	68.437
1012.47	60.358
1012.63	61.494
1012.80	52.910
1012.96	65.508
1013.12	63.333
1013.29	69.806
1013.45	68.407
1013.61	58.915
1013.77	66.150
1013.94	57.702
1014.10	53.333
1014.26	63.119
1014.43	66.484
1014.59	67.663
1014.75	61.140
1014.91	65.675
1015.08	66.344
1015.24	68.895
1015.40	67.500
1015.56	64.211
1015.73	63.210
1015.89	61.290
1016.05	59.005
1016.21	59.640
1016.38	61.126
1016.54	68.713
1016.70	77.353
1016.86	65.517
1017.03	65.940
1017.19	59.601
1017.35	65.330
1017.51	75.068
1017.68	77.403
1017.84	65.412
1018.00	71.540
1018.16	67.222
1018.33	72.753
1018.49	77.143
1018.65	70.572
1018.81	77.370
1018.97	61.190
1019.14	77.929
1019.30	70.822
1019.46	84.536
1019.62	85.547
1019.79	78.056
1019.95	82.262
1020.11	66.355
1020.27	58.361
1020.43	75.789
1020.60	67.803
1020.76	90.637
1020.92	71.429
1021.08	70.066
1021.24	72.360
1021.41	85.333
1021.57	68.391
1021.73	83.279
1021.89	65.132
1022.05	73.171
1022.21	69.722
1022.38	64.857
1022.54	69.914
1022.70	63.000
1022.86	65.994
1023.02	69.565
1023.19	72.697
1023.35	58.521
1023.51	55.449
1023.67	66.860
1023.83	88.168
1023.99	73.239
1024.16	61.905
1024.32	67.638
1024.48	74.823
1024.64	66.887
1024.80	78.723
1024.96	63.272
1025.12	58.934
1025.29	72.792
1025.45	73.929
1025.61	63.871
1025.77	50.542
1025.93	74.224
1026.09	55.598
1026.26	76.689
1026.42	85.656
1026.58	59.170
1026.74	77.647
1026.90	63.746
1027.06	39.604
1027.22	63.758
1027.38	65.603
1027.55	93.689
1027.71	66.570
1027.87	70.169
1028.03	72.908
1028.19	61.695
1028.35	61.255
1028.51	63.312
1028.67	71.483
1028.83	60.173
1029.00	45.172
1029.16	83.125
1029.32	63.534
1029.48	63.281
1029.64	75.410
1029.80	72.764
1029.96	87.302
1030.12	72.894
1030.28	65.965
1030.44	77.381
1030.61	81.013
1030.77	86.475
1030.93	58.730
1031.09	57.255
1031.25	85.787
1031.41	80.321
1031.57	73.418
1031.73	62.083
1031.89	81.272
1032.05	69.663
1032.21	60.408
1032.37	62.230
1032.53	73.783
1032.69	60.086
1032.86	56.250
1033.02	55.482
1033.18	77.692
1033.34	65.591
1033.50	81.865
1033.66	54.717
1033.82	76.557
1033.98	58.190
1034.14	71.889
1034.30	72.137
1034.46	60.150
1034.62	63.922
1034.78	73.897
1034.94	54.513
1035.10	59.223
1035.26	55.326
1035.42	70.199
1035.58	46.931
1035.74	90.871
1035.90	60.000
1036.06	55.056
1036.22	43.511
1036.38	55.947
1036.54	63.934
1036.70	72.500
1036.86	68.557
1037.02	57.509
1037.18	87.143
1037.34	53.175
1037.50	58.738
1037.66	61.053
1037.82	74.653
1037.98	54.480
1038.14	67.403
1038.30	58.077
1038.46	62.230
1038.62	34.272
1038.78	58.173
1038.94	75.862
1039.10	80.383
1039.26	78.017
1039.42	68.807
1039.58	89.941
1039.74	53.556
1039.90	64.000
1040.06	69.268
>>>>>End Processed Spectral Data<<<<<
