SpectraSuite Data File
++++++++++++++++++++++++++++++++++++
Date: Mon Mar 27 19:57:28 EEST 2017
User: TheoProf
Dark Spectrum Present: Yes
Reference Spectrum Present: Yes
Number of Sampled Component Spectra: 1
Spectrometers: USB4C02475
Integration Time (usec): 426341 (USB4C02475)
Spectra Averaged: 1 (USB4C02475)
Boxcar Smoothing: 0 (USB4C02475)
Correct for Electrical Dark: No (USB4C02475)
Strobe/Lamp Enabled: No (USB4C02475)
Correct for Detector Non-linearity: No (USB4C02475)
Correct for Stray Light: No (USB4C02475)
Number of Pixels in Processed Spectrum: 3648
>>>>>Begin Processed Spectral Data<<<<<
344.91	100.000
345.13	100.000
345.35	100.000
345.57	0.000
345.79	74.074
346.00	-431.579
346.22	-134.211
346.44	825.000
346.66	1366.667
346.87	128.333
347.09	0.000
347.31	-438.462
347.53	-150.000
347.74	-100.000
347.96	-51.389
348.18	460.000
348.40	1225.000
348.61	-392.000
348.83	-212.500
349.05	-190.476
349.27	100.000
349.48	-641.667
349.70	200.000
349.92	1250.000
350.14	-628.571
350.35	1075.000
350.57	218.182
350.79	314.286
351.01	187.755
351.22	189.189
351.44	-457.143
351.66	136.508
351.87	175.676
352.09	101.493
352.31	120.270
352.53	163.333
352.74	136.232
352.96	163.158
353.18	225.000
353.40	217.021
353.61	469.565
353.83	156.338
354.05	600.000
354.26	-1766.667
354.48	1075.000
354.70	-360.000
354.92	168.493
355.13	260.714
355.35	-1345.455
355.57	-55.556
355.78	94.737
356.00	591.667
356.22	216.129
356.44	1050.000
356.65	1200.000
356.87	590.000
357.09	615.000
357.30	473.913
357.52	123.214
357.74	713.333
357.95	170.313
358.17	-1425.000
358.39	-193.750
358.60	2400.000
358.82	183.333
359.04	193.103
359.26	76.596
359.47	277.778
359.69	221.429
359.91	396.774
360.12	260.526
360.34	-727.273
360.56	428.571
360.77	-1100.000
360.99	-663.636
361.21	160.000
361.42	-2600.000
361.64	-785.714
361.86	314.286
362.07	300.000
362.29	76.667
362.51	180.000
362.72	425.000
362.94	82.143
363.16	370.000
363.37	240.000
363.59	220.000
363.81	297.297
364.02	543.750
364.24	4900.000
364.46	211.111
364.67	201.852
364.89	381.818
365.11	0.000
365.32	293.333
365.54	-143.750
365.76	-197.619
365.97	339.130
366.19	288.889
366.41	92.308
366.62	225.455
366.84	81.250
367.05	193.939
367.27	2833.333
367.49	414.286
367.70	167.391
367.92	190.244
368.14	161.538
368.35	315.385
368.57	173.494
368.79	114.286
369.00	82.456
369.22	134.000
369.43	78.022
369.65	1100.000
369.87	213.636
370.08	238.889
370.30	160.870
370.51	484.615
370.73	112.987
370.95	727.273
371.16	240.000
371.38	370.000
371.60	606.250
371.81	196.154
372.03	3200.000
372.24	242.857
372.46	207.407
372.68	32.394
372.89	92.000
373.11	102.970
373.32	-76.923
373.54	812.500
373.76	128.788
373.97	245.833
374.19	167.089
374.40	376.471
374.62	187.879
374.84	-838.462
375.05	191.429
375.27	676.471
375.48	447.619
375.70	370.968
375.92	96.552
376.13	-1633.333
376.35	79.762
376.56	75.510
376.78	151.000
376.99	339.394
377.21	223.256
377.43	151.613
377.64	285.000
377.86	140.000
378.07	100.000
378.29	135.714
378.51	107.059
378.72	143.590
378.94	70.085
379.15	49.474
379.37	58.036
379.58	178.462
379.80	93.443
380.01	273.077
380.23	225.000
380.45	184.444
380.66	80.000
380.88	86.765
381.09	191.489
381.31	115.385
381.52	58.462
381.74	90.789
381.95	69.048
382.17	83.929
382.39	131.944
382.60	131.429
382.82	83.636
383.03	134.177
383.25	113.158
383.46	74.545
383.68	107.071
383.89	73.874
384.11	129.545
384.32	82.258
384.54	-204.762
384.76	97.849
384.97	48.387
385.19	54.286
385.40	101.370
385.62	100.000
385.83	102.353
386.05	96.552
386.26	102.479
386.48	60.440
386.69	-12.000
386.91	65.957
387.12	74.444
387.34	70.270
387.55	13.889
387.77	64.341
387.98	83.688
388.20	114.953
388.41	42.857
388.63	62.879
388.84	61.798
389.06	71.429
389.27	70.896
389.49	43.137
389.70	61.832
389.92	57.343
390.13	22.368
390.35	39.695
390.56	32.812
390.78	77.778
390.99	42.268
391.21	58.824
391.42	61.654
391.64	76.224
391.85	15.094
392.07	22.222
392.28	16.456
392.50	47.917
392.71	50.394
392.93	43.939
393.14	48.062
393.36	68.033
393.57	14.815
393.79	33.537
394.00	53.043
394.22	102.586
394.43	43.684
394.65	45.000
394.86	10.465
395.08	28.689
395.29	20.513
395.50	27.835
395.72	17.178
395.93	38.710
396.15	-8.025
396.36	39.216
396.58	39.726
396.79	58.896
397.01	17.460
397.22	19.072
397.44	49.275
397.65	30.769
397.87	61.202
398.08	38.562
398.29	33.333
398.51	38.308
398.72	22.959
398.94	31.765
399.15	39.896
399.37	68.786
399.58	41.921
399.80	-16.667
400.01	48.421
400.22	31.429
400.44	31.441
400.65	4.861
400.87	39.827
401.08	14.646
401.30	31.944
401.51	32.512
401.72	36.287
401.94	21.667
402.15	15.068
402.37	3.333
402.58	18.214
402.80	21.825
403.01	11.848
403.22	20.611
403.44	26.056
403.65	24.127
403.87	32.283
404.08	23.051
404.30	1.674
404.51	39.329
404.72	29.595
404.94	12.069
405.15	12.205
405.37	26.332
405.58	19.745
405.79	27.946
406.01	22.222
406.22	18.612
406.44	9.343
406.65	17.534
406.86	5.639
407.08	10.968
407.29	17.473
407.51	3.911
407.72	18.204
407.93	24.863
408.15	14.021
408.36	3.599
408.58	19.524
408.79	0.000
409.00	9.737
409.22	23.608
409.43	16.279
409.64	7.381
409.86	8.373
410.07	14.725
410.29	4.878
410.50	3.620
410.71	16.548
410.93	10.115
411.14	9.958
411.35	10.944
411.57	5.477
411.78	14.085
412.00	14.092
412.21	17.729
412.42	7.194
412.64	8.594
412.85	10.796
413.06	4.255
413.28	2.268
413.49	4.486
413.70	14.955
413.92	11.570
414.13	-2.198
414.34	0.661
414.56	18.331
414.77	13.057
414.98	6.341
415.20	2.936
415.41	2.556
415.63	1.685
415.84	10.860
416.05	-0.326
416.27	7.088
416.48	4.269
416.69	-0.295
416.91	9.359
417.12	3.566
417.33	11.735
417.55	3.610
417.76	2.319
417.97	6.647
418.19	2.333
418.40	-0.278
418.61	4.058
418.83	9.494
419.04	7.901
419.25	2.817
419.46	2.577
419.68	7.294
419.89	6.009
420.10	10.845
420.32	3.342
420.53	8.617
420.74	5.918
420.96	2.881
421.17	6.561
421.38	6.020
421.60	1.128
421.81	1.952
422.02	3.013
422.23	-2.726
422.45	8.916
422.66	7.508
422.87	5.744
423.09	2.316
423.30	5.101
423.51	4.844
423.73	4.385
423.94	6.465
424.15	6.438
424.36	4.990
424.58	5.803
424.79	5.419
425.00	5.951
425.22	-0.508
425.43	6.616
425.64	5.169
425.85	6.955
426.07	7.136
426.28	5.487
426.49	3.250
426.71	3.464
426.92	5.273
427.13	3.853
427.34	7.037
427.56	7.666
427.77	6.726
427.98	2.788
428.19	6.566
428.41	2.315
428.62	8.437
428.83	5.863
429.04	7.264
429.26	3.742
429.47	6.019
429.68	5.427
429.89	7.791
430.11	14.495
430.32	10.180
430.53	10.449
430.74	12.718
430.96	20.641
431.17	25.057
431.38	26.603
431.59	27.952
431.81	36.736
432.02	47.412
432.23	45.435
432.44	48.710
432.66	57.479
432.87	64.672
433.08	71.689
433.29	73.695
433.51	76.208
433.72	78.486
433.93	74.189
434.14	83.059
434.35	80.231
434.57	81.266
434.78	85.209
434.99	88.882
435.20	88.792
435.42	83.419
435.63	82.308
435.84	88.327
436.05	88.235
436.26	84.860
436.48	86.493
436.69	83.777
436.90	87.609
437.11	83.435
437.32	92.176
437.54	89.884
437.75	90.696
437.96	94.039
438.17	85.109
438.38	91.571
438.60	90.727
438.81	90.366
439.02	88.706
439.23	86.952
439.44	93.535
439.66	89.486
439.87	91.247
440.08	86.176
440.29	90.557
440.50	92.788
440.72	87.209
440.93	91.587
441.14	90.426
441.35	89.282
441.56	89.496
441.77	89.631
441.99	84.812
442.20	88.670
442.41	90.950
442.62	87.209
442.83	92.398
443.04	92.002
443.26	91.094
443.47	94.569
443.68	93.557
443.89	86.881
444.10	86.545
444.31	93.670
444.53	90.698
444.74	87.129
444.95	90.350
445.16	87.411
445.37	92.495
445.58	96.573
445.80	92.448
446.01	94.182
446.22	86.627
446.43	90.742
446.64	88.666
446.85	90.523
447.06	91.188
447.28	89.976
447.49	93.036
447.70	94.044
447.91	93.031
448.12	92.296
448.33	87.673
448.54	93.622
448.76	93.061
448.97	91.329
449.18	88.703
449.39	89.879
449.60	90.844
449.81	91.548
450.02	91.917
450.23	93.883
450.45	85.836
450.66	89.194
450.87	92.189
451.08	88.336
451.29	92.774
451.50	94.037
451.71	92.147
451.92	94.078
452.13	92.040
452.35	88.739
452.56	93.294
452.77	92.115
452.98	98.121
453.19	93.257
453.40	87.178
453.61	95.345
453.82	89.062
454.03	88.525
454.25	90.825
454.46	89.357
454.67	86.291
454.88	87.864
455.09	90.189
455.30	90.713
455.51	88.588
455.72	91.703
455.93	84.996
456.14	94.370
456.35	90.851
456.56	92.656
456.78	86.588
456.99	90.887
457.20	89.556
457.41	88.404
457.62	87.095
457.83	89.784
458.04	94.066
458.25	88.952
458.46	88.717
458.67	97.272
458.88	90.978
459.09	89.250
459.30	89.918
459.51	93.594
459.73	93.781
459.94	90.981
460.15	91.351
460.36	89.871
460.57	89.270
460.78	89.052
460.99	90.600
461.20	87.869
461.41	91.839
461.62	86.088
461.83	88.032
462.04	87.555
462.25	86.500
462.46	81.892
462.67	80.277
462.88	78.227
463.09	77.439
463.30	72.653
463.51	69.858
463.72	65.704
463.93	58.742
464.15	53.364
464.36	48.165
464.57	45.440
464.78	40.738
464.99	32.516
465.20	31.327
465.41	25.598
465.62	23.014
465.83	20.181
466.04	16.028
466.25	12.518
466.46	10.833
466.67	9.888
466.88	6.667
467.09	4.854
467.30	4.656
467.51	3.853
467.72	2.356
467.93	0.974
468.14	3.400
468.35	2.034
468.56	1.943
468.77	2.093
468.98	2.470
469.19	2.801
469.40	1.566
469.61	2.170
469.82	2.509
470.03	2.639
470.24	0.536
470.45	3.000
470.66	3.364
470.87	2.088
471.08	1.637
471.29	1.740
471.50	2.401
471.71	0.774
471.92	1.906
472.13	1.021
472.34	1.225
472.55	2.157
472.76	1.484
472.97	2.287
473.18	2.825
473.39	2.752
473.60	1.466
473.81	1.603
474.01	2.279
474.22	-0.674
474.43	1.976
474.64	1.013
474.85	1.481
475.06	2.088
475.27	0.244
475.48	1.086
475.69	0.430
475.90	1.494
476.11	1.462
476.32	2.380
476.53	1.215
476.74	1.880
476.95	1.960
477.16	1.943
477.37	1.741
477.58	2.549
477.79	1.900
478.00	0.813
478.21	2.364
478.41	1.326
478.62	0.547
478.83	2.379
479.04	1.573
479.25	1.946
479.46	1.048
479.67	1.262
479.88	1.348
480.09	2.038
480.30	0.662
480.51	1.617
480.72	1.721
480.93	0.504
481.14	1.215
481.34	1.190
481.55	1.045
481.76	1.073
481.97	1.965
482.18	2.189
482.39	1.313
482.60	1.019
482.81	1.276
483.02	1.716
483.23	0.947
483.44	1.442
483.65	0.787
483.85	1.160
484.06	0.942
484.27	1.641
484.48	1.191
484.69	1.204
484.90	0.746
485.11	0.323
485.32	1.849
485.53	0.938
485.73	1.034
485.94	1.397
486.15	2.148
486.36	0.326
486.57	0.562
486.78	2.063
486.99	1.548
487.20	1.170
487.41	2.037
487.61	1.678
487.82	1.280
488.03	1.653
488.24	0.975
488.45	0.636
488.66	1.454
488.87	1.663
489.08	1.523
489.28	2.296
489.49	0.863
489.70	0.794
489.91	1.034
490.12	0.872
490.33	1.744
490.54	0.952
490.74	1.176
490.95	0.632
491.16	0.634
491.37	0.921
491.58	0.674
491.79	1.478
492.00	1.354
492.20	1.078
492.41	1.732
492.62	1.153
492.83	0.105
493.04	1.588
493.25	1.788
493.45	1.283
493.66	1.398
493.87	1.386
494.08	0.902
494.29	1.163
494.50	0.952
494.70	1.528
494.91	1.778
495.12	0.960
495.33	0.822
495.54	1.515
495.75	1.343
495.95	0.822
496.16	1.091
496.37	0.829
496.58	1.107
496.79	1.303
496.99	1.267
497.20	1.394
497.41	1.437
497.62	0.994
497.83	1.009
498.04	0.844
498.24	0.922
498.45	0.965
498.66	1.230
498.87	1.655
499.08	2.432
499.28	1.024
499.49	0.832
499.70	0.615
499.91	0.807
500.12	1.216
500.32	0.974
500.53	0.361
500.74	0.929
500.95	0.897
501.15	1.927
501.36	0.714
501.57	1.398
501.78	1.207
501.99	1.126
502.19	0.834
502.40	1.161
502.61	1.404
502.82	1.392
503.02	0.797
503.23	1.068
503.44	1.841
503.65	1.320
503.86	1.596
504.06	1.053
504.27	1.545
504.48	1.018
504.69	1.245
504.89	1.036
505.10	1.186
505.31	1.105
505.52	1.212
505.72	1.451
505.93	1.021
506.14	1.488
506.35	1.170
506.55	1.914
506.76	1.532
506.97	1.882
507.18	1.880
507.38	2.670
507.59	1.940
507.80	2.702
508.01	3.323
508.21	4.338
508.42	5.444
508.63	7.000
508.84	8.734
509.04	10.669
509.25	14.162
509.46	17.129
509.67	21.829
509.87	24.721
510.08	30.468
510.29	34.626
510.49	39.065
510.70	44.291
510.91	48.249
511.12	52.918
511.32	57.932
511.53	62.280
511.74	65.395
511.94	70.493
512.15	73.516
512.36	77.022
512.57	77.855
512.77	81.260
512.98	83.023
513.19	83.688
513.39	83.790
513.60	85.445
513.81	86.200
514.01	87.675
514.22	87.161
514.43	88.465
514.64	88.818
514.84	88.964
515.05	87.552
515.26	88.202
515.46	87.646
515.67	89.751
515.88	88.433
516.08	87.744
516.29	88.397
516.50	87.407
516.70	85.802
516.91	85.135
517.12	85.120
517.32	85.706
517.53	86.132
517.74	87.683
517.95	85.976
518.15	88.124
518.36	90.076
518.57	90.167
518.77	88.285
518.98	89.801
519.19	88.794
519.39	90.926
519.60	89.317
519.80	91.292
520.01	93.057
520.22	94.519
520.42	93.177
520.63	93.074
520.84	92.100
521.04	92.989
521.25	90.863
521.46	94.446
521.66	93.028
521.87	93.595
522.08	94.123
522.28	93.163
522.49	93.290
522.70	92.509
522.90	93.039
523.11	93.618
523.31	94.053
523.52	93.802
523.73	94.980
523.93	93.280
524.14	93.939
524.35	92.999
524.55	94.459
524.76	93.190
524.97	92.674
525.17	92.203
525.38	92.297
525.58	93.156
525.79	91.954
526.00	91.716
526.20	91.693
526.41	90.643
526.61	90.836
526.82	91.196
527.03	90.995
527.23	93.431
527.44	93.050
527.64	92.466
527.85	93.531
528.06	93.964
528.26	92.982
528.47	93.567
528.68	92.671
528.88	94.872
529.09	92.269
529.29	92.581
529.50	93.119
529.70	93.282
529.91	93.751
530.12	93.123
530.32	92.028
530.53	93.709
530.73	93.257
530.94	93.548
531.15	93.869
531.35	94.294
531.56	91.916
531.76	94.990
531.97	93.468
532.17	92.913
532.38	93.027
532.59	94.135
532.79	92.966
533.00	94.219
533.20	93.282
533.41	93.094
533.61	93.052
533.82	93.977
534.03	92.013
534.23	90.049
534.44	90.754
534.64	90.086
534.85	87.607
535.05	85.175
535.26	82.295
535.46	80.304
535.67	76.697
535.88	73.072
536.08	69.311
536.29	64.744
536.49	60.112
536.70	55.381
536.90	51.263
537.11	46.589
537.31	41.091
537.52	37.356
537.72	33.165
537.93	29.910
538.13	26.603
538.34	23.553
538.55	20.342
538.75	16.880
538.96	15.071
539.16	12.151
539.37	11.005
539.57	8.701
539.78	7.281
539.98	5.901
540.19	4.347
540.39	4.161
540.60	2.822
540.80	2.223
541.01	1.767
541.21	1.584
541.42	1.395
541.62	1.167
541.83	1.052
542.03	0.864
542.24	0.832
542.44	0.916
542.65	0.874
542.85	0.646
543.06	0.906
543.26	0.786
543.47	0.707
543.67	0.741
543.88	1.049
544.08	0.594
544.29	1.408
544.49	1.066
544.70	0.845
544.90	0.707
545.11	0.532
545.31	0.845
545.52	0.523
545.72	0.872
545.93	0.593
546.13	0.942
546.34	0.706
546.54	0.546
546.75	0.710
546.95	0.957
547.15	0.276
547.36	0.257
547.56	0.553
547.77	0.943
547.97	0.534
548.18	0.484
548.38	0.601
548.59	0.251
548.79	0.528
549.00	0.358
549.20	0.808
549.41	0.649
549.61	0.789
549.81	0.540
550.02	0.692
550.22	0.447
550.43	0.641
550.63	0.568
550.84	0.893
551.04	0.612
551.25	0.421
551.45	0.458
551.65	0.715
551.86	0.404
552.06	0.792
552.27	0.976
552.47	0.479
552.68	0.707
552.88	0.291
553.08	0.276
553.29	0.870
553.49	0.512
553.70	0.652
553.90	0.733
554.11	0.875
554.31	0.606
554.51	0.570
554.72	0.167
554.92	0.767
555.13	0.837
555.33	0.422
555.53	0.539
555.74	0.408
555.94	0.547
556.15	0.680
556.35	0.308
556.56	0.816
556.76	0.630
556.96	0.610
557.17	0.448
557.37	0.568
557.58	0.757
557.78	0.496
557.98	0.475
558.19	0.528
558.39	0.500
558.59	0.659
558.80	0.580
559.00	0.754
559.21	0.483
559.41	0.389
559.61	0.472
559.82	0.633
560.02	0.415
560.23	0.733
560.43	0.774
560.63	0.483
560.84	0.800
561.04	0.581
561.24	0.891
561.45	0.385
561.65	0.674
561.85	0.687
562.06	0.608
562.26	0.558
562.47	0.537
562.67	0.350
562.87	0.588
563.08	0.543
563.28	0.588
563.48	0.621
563.69	0.322
563.89	0.905
564.09	0.730
564.30	0.491
564.50	0.731
564.70	0.888
564.91	0.608
565.11	0.802
565.31	0.242
565.52	0.648
565.72	0.681
565.92	0.619
566.13	0.519
566.33	1.027
566.53	0.770
566.74	0.587
566.94	0.696
567.14	0.594
567.35	0.644
567.55	0.496
567.75	0.677
567.96	0.880
568.16	0.988
568.36	0.967
568.57	0.678
568.77	0.626
568.97	0.649
569.18	0.760
569.38	0.788
569.58	0.596
569.79	0.602
569.99	0.664
570.19	0.965
570.39	0.870
570.60	0.601
570.80	1.044
571.00	1.182
571.21	0.836
571.41	0.822
571.61	0.884
571.82	1.140
572.02	1.096
572.22	1.048
572.42	1.203
572.63	1.287
572.83	1.388
573.03	1.656
573.24	2.105
573.44	2.439
573.64	3.052
573.84	3.902
574.05	4.982
574.25	6.171
574.45	7.325
574.66	9.072
574.86	11.661
575.06	14.055
575.26	16.756
575.47	19.533
575.67	23.257
575.87	26.577
576.07	29.946
576.28	34.147
576.48	38.020
576.68	40.583
576.88	45.943
577.09	49.232
577.29	53.116
577.49	56.734
577.69	60.284
577.90	63.399
578.10	65.410
578.30	69.963
578.50	72.900
578.71	75.753
578.91	77.423
579.11	80.919
579.31	83.534
579.52	84.424
579.72	86.564
579.92	86.753
580.12	88.891
580.33	90.325
580.53	89.794
580.73	91.846
580.93	91.800
581.13	91.889
581.34	91.438
581.54	91.423
581.74	91.185
581.94	93.151
582.15	92.802
582.35	92.078
582.55	92.039
582.75	92.238
582.95	92.236
583.16	92.765
583.36	93.030
583.56	93.084
583.76	93.015
583.96	92.584
584.17	92.832
584.37	93.402
584.57	93.142
584.77	93.363
584.97	93.513
585.18	93.489
585.38	92.776
585.58	92.745
585.78	92.944
585.98	93.200
586.19	94.382
586.39	91.786
586.59	92.086
586.79	92.393
586.99	92.021
587.20	92.396
587.40	93.823
587.60	93.969
587.80	93.175
588.00	92.574
588.20	94.405
588.41	92.890
588.61	93.062
588.81	91.856
589.01	92.827
589.21	92.490
589.41	92.993
589.62	92.733
589.82	92.696
590.02	92.164
590.22	94.005
590.42	91.836
590.62	92.574
590.83	93.535
591.03	93.965
591.23	93.086
591.43	94.286
591.63	93.486
591.83	93.292
592.03	94.453
592.24	94.962
592.44	93.481
592.64	93.021
592.84	91.973
593.04	93.304
593.24	93.708
593.44	91.914
593.65	92.011
593.85	93.140
594.05	92.515
594.25	93.237
594.45	93.676
594.65	93.640
594.85	93.532
595.06	93.997
595.26	93.132
595.46	92.554
595.66	93.496
595.86	91.628
596.06	94.211
596.26	91.078
596.46	92.801
596.66	91.442
596.87	92.182
597.07	92.852
597.27	92.822
597.47	92.885
597.67	92.891
597.87	91.660
598.07	92.366
598.27	91.553
598.47	92.067
598.67	91.675
598.88	91.868
599.08	90.714
599.28	90.664
599.48	90.211
599.68	90.744
599.88	90.084
600.08	91.100
600.28	92.520
600.48	90.762
600.68	90.246
600.88	91.989
601.09	91.167
601.29	91.941
601.49	91.564
601.69	91.806
601.89	90.995
602.09	91.542
602.29	91.008
602.49	90.876
602.69	92.406
602.89	93.611
603.09	91.998
603.29	93.564
603.49	91.877
603.69	91.974
603.90	92.202
604.10	92.351
604.30	92.680
604.50	92.704
604.70	91.277
604.90	92.039
605.10	91.345
605.30	93.413
605.50	91.787
605.70	92.447
605.90	91.341
606.10	91.185
606.30	92.499
606.50	91.767
606.70	91.341
606.90	92.416
607.10	92.756
607.30	90.629
607.50	92.238
607.70	90.874
607.90	92.002
608.10	91.194
608.30	91.386
608.50	90.000
608.70	90.616
608.90	89.286
609.11	90.076
609.31	89.555
609.51	90.164
609.71	90.397
609.91	90.618
610.11	89.851
610.31	91.040
610.51	92.547
610.71	92.352
610.91	91.451
611.11	92.612
611.31	92.599
611.51	91.368
611.71	91.424
611.91	91.477
612.11	91.434
612.31	92.088
612.51	90.657
612.71	91.401
612.91	92.624
613.11	92.187
613.31	91.892
613.51	92.357
613.71	91.923
613.91	92.017
614.11	91.543
614.31	91.302
614.50	91.783
614.70	91.342
614.90	91.521
615.10	91.095
615.30	90.475
615.50	89.953
615.70	89.575
615.90	90.435
616.10	90.072
616.30	89.901
616.50	90.561
616.70	91.586
616.90	93.112
617.10	90.882
617.30	91.347
617.50	92.276
617.70	92.308
617.90	91.087
618.10	92.109
618.30	90.984
618.50	91.337
618.70	90.910
618.90	90.620
619.10	91.154
619.30	90.127
619.49	91.079
619.69	89.932
619.89	89.819
620.09	90.576
620.29	89.740
620.49	89.138
620.69	89.584
620.89	90.396
621.09	89.622
621.29	90.143
621.49	90.152
621.69	91.324
621.89	90.601
622.09	89.593
622.29	90.345
622.48	90.345
622.68	91.721
622.88	91.929
623.08	90.688
623.28	91.327
623.48	89.999
623.68	91.481
623.88	92.166
624.08	90.682
624.28	91.824
624.48	92.039
624.67	92.737
624.87	92.743
625.07	92.086
625.27	92.621
625.47	92.390
625.67	92.717
625.87	92.222
626.07	92.512
626.27	92.320
626.47	93.064
626.66	92.048
626.86	93.092
627.06	91.708
627.26	90.594
627.46	91.157
627.66	91.408
627.86	91.950
628.06	91.307
628.25	91.592
628.45	90.165
628.65	91.123
628.85	89.963
629.05	89.915
629.25	90.677
629.45	89.277
629.65	90.238
629.84	89.582
630.04	89.142
630.24	88.635
630.44	88.538
630.64	87.573
630.84	88.051
631.04	87.493
631.23	86.386
631.43	85.010
631.63	84.112
631.83	83.417
632.03	81.928
632.23	79.238
632.42	77.187
632.62	75.786
632.82	72.855
633.02	70.601
633.22	67.968
633.42	64.269
633.62	61.981
633.81	58.241
634.01	55.358
634.21	51.395
634.41	48.770
634.61	44.769
634.80	42.136
635.00	39.426
635.20	36.249
635.40	32.720
635.60	29.674
635.80	27.137
635.99	24.236
636.19	21.408
636.39	19.210
636.59	16.929
636.79	15.627
636.98	14.202
637.18	12.574
637.38	11.359
637.58	10.011
637.78	8.079
637.97	6.821
638.17	5.484
638.37	4.649
638.57	3.908
638.77	3.547
638.96	2.646
639.16	2.222
639.36	1.909
639.56	1.611
639.76	1.181
639.95	1.018
640.15	0.990
640.35	0.887
640.55	0.868
640.75	0.482
640.94	0.515
641.14	0.763
641.34	0.579
641.54	0.400
641.73	0.735
641.93	0.476
642.13	0.418
642.33	0.398
642.53	0.430
642.72	0.271
642.92	0.535
643.12	0.342
643.32	0.522
643.51	0.519
643.71	0.164
643.91	0.464
644.11	0.112
644.30	0.261
644.50	0.384
644.70	0.412
644.90	0.289
645.09	0.356
645.29	0.170
645.49	0.379
645.69	0.368
645.88	0.293
646.08	0.634
646.28	0.512
646.48	0.405
646.67	0.337
646.87	0.256
647.07	0.219
647.26	0.343
647.46	0.442
647.66	0.213
647.86	0.193
648.05	0.386
648.25	0.217
648.45	0.141
648.65	0.099
648.84	0.341
649.04	0.161
649.24	0.275
649.43	0.620
649.63	0.366
649.83	0.322
650.03	0.382
650.22	0.170
650.42	0.393
650.62	0.284
650.81	0.134
651.01	0.324
651.21	0.359
651.40	0.418
651.60	0.134
651.80	0.099
652.00	0.020
652.19	0.247
652.39	0.150
652.59	0.174
652.78	0.258
652.98	0.260
653.18	0.325
653.37	0.268
653.57	0.311
653.77	0.344
653.96	0.012
654.16	0.197
654.36	0.210
654.55	0.214
654.75	0.277
654.95	0.215
655.14	0.243
655.34	0.289
655.54	0.149
655.73	0.363
655.93	0.164
656.13	0.286
656.32	0.217
656.52	0.319
656.72	0.189
656.91	0.149
657.11	0.156
657.31	0.189
657.50	0.035
657.70	0.031
657.90	0.027
658.09	0.047
658.29	0.416
658.49	0.142
658.68	0.199
658.88	0.217
659.07	0.254
659.27	0.205
659.47	0.277
659.66	0.286
659.86	0.234
660.06	0.207
660.25	0.239
660.45	0.168
660.64	0.152
660.84	0.101
661.04	-0.097
661.23	0.195
661.43	0.211
661.63	0.169
661.82	0.035
662.02	0.035
662.21	0.224
662.41	0.124
662.61	0.296
662.80	0.227
663.00	0.308
663.19	0.154
663.39	0.137
663.59	0.074
663.78	0.090
663.98	0.304
664.17	0.035
664.37	0.328
664.57	0.180
664.76	0.186
664.96	0.236
665.15	0.206
665.35	-0.004
665.55	-0.055
665.74	-0.046
665.94	0.148
666.13	0.043
666.33	0.117
666.53	0.062
666.72	0.106
666.92	0.102
667.11	0.138
667.31	0.204
667.50	0.047
667.70	-0.028
667.90	0.125
668.09	-0.023
668.29	-0.063
668.48	0.117
668.68	0.173
668.87	0.098
669.07	0.290
669.26	0.256
669.46	0.164
669.66	0.058
669.85	-0.032
670.05	0.125
670.24	0.300
670.44	0.294
670.63	0.171
670.83	0.310
671.02	0.248
671.22	0.199
671.42	-0.129
671.61	-0.023
671.81	0.067
672.00	0.000
672.20	0.134
672.39	0.027
672.59	0.401
672.78	0.302
672.98	-0.027
673.17	-0.043
673.37	0.071
673.56	0.067
673.76	-0.023
673.95	0.293
674.15	0.118
674.34	0.082
674.54	0.051
674.73	0.101
674.93	-0.074
675.13	0.000
675.32	0.372
675.52	0.031
675.71	-0.067
675.91	0.067
676.10	-0.086
676.30	0.105
676.49	0.106
676.69	0.083
676.88	0.062
677.08	-0.035
677.27	0.079
677.47	0.412
677.66	-0.020
677.86	-0.085
678.05	0.261
678.24	0.118
678.44	-0.027
678.63	0.236
678.83	0.035
679.02	0.090
679.22	0.087
679.41	-0.070
679.61	-0.232
679.80	0.043
680.00	-0.149
680.19	0.023
680.39	0.035
680.58	0.004
680.78	0.164
680.97	0.094
681.17	0.098
681.36	-0.024
681.56	0.165
681.75	0.004
681.94	0.122
682.14	0.087
682.33	-0.209
682.53	0.179
682.72	0.130
682.92	0.079
683.11	-0.027
683.31	-0.059
683.50	0.035
683.69	-0.213
683.89	0.166
684.08	0.158
684.28	0.179
684.47	0.178
684.67	-0.170
684.86	0.154
685.06	0.082
685.25	-0.146
685.44	0.091
685.64	0.047
685.83	-0.075
686.03	-0.008
686.22	0.031
686.42	0.068
686.61	0.109
686.80	0.008
687.00	0.083
687.19	0.154
687.39	-0.024
687.58	0.000
687.77	0.040
687.97	0.139
688.16	-0.128
688.36	0.076
688.55	0.084
688.74	0.111
688.94	-0.060
689.13	-0.020
689.33	0.080
689.52	-0.123
689.71	0.068
689.91	-0.024
690.10	0.108
690.30	0.016
690.49	0.288
690.68	0.036
690.88	0.191
691.07	-0.083
691.27	0.337
691.46	-0.099
691.65	-0.107
691.85	0.150
692.04	0.151
692.23	-0.028
692.43	-0.081
692.62	0.108
692.82	0.221
693.01	0.259
693.20	0.104
693.40	0.056
693.59	0.080
693.78	0.092
693.98	0.016
694.17	0.112
694.36	0.016
694.56	0.116
694.75	0.032
694.94	-0.028
695.14	0.044
695.33	0.159
695.53	0.104
695.72	-0.020
695.91	0.124
696.11	-0.160
696.30	0.068
696.49	-0.080
696.69	0.135
696.88	0.089
697.07	-0.053
697.27	0.020
697.46	0.276
697.65	0.016
697.85	0.073
698.04	-0.133
698.23	0.052
698.43	0.105
698.62	0.032
698.81	-0.036
699.01	0.049
699.20	0.028
699.39	0.000
699.58	0.171
699.78	0.000
699.97	0.201
700.16	0.021
700.36	0.246
700.55	0.065
700.74	0.057
700.94	0.098
701.13	0.183
701.32	0.114
701.52	-0.267
701.71	0.139
701.90	0.147
702.09	-0.147
702.29	0.131
702.48	-0.053
702.67	0.119
702.87	0.102
703.06	0.057
703.25	0.382
703.44	-0.012
703.64	-0.112
703.83	0.124
704.02	0.111
704.22	0.008
704.41	0.016
704.60	-0.029
704.79	-0.074
704.99	-0.058
705.18	-0.159
705.37	0.123
705.56	-0.116
705.76	0.124
705.95	0.141
706.14	-0.061
706.33	0.008
706.53	0.012
706.72	0.176
706.91	-0.025
707.11	-0.100
707.30	-0.041
707.49	0.366
707.68	0.248
707.88	-0.038
708.07	-0.100
708.26	0.095
708.45	0.059
708.64	0.232
708.84	0.033
709.03	0.298
709.22	-0.180
709.41	-0.055
709.61	0.080
709.80	0.311
709.99	0.079
710.18	-0.109
710.38	0.017
710.57	-0.021
710.76	-0.021
710.95	0.038
711.14	0.205
711.34	0.013
711.53	0.097
711.72	0.390
711.91	-0.076
712.11	-0.021
712.30	0.013
712.49	0.111
712.68	-0.189
712.87	-0.102
713.07	-0.025
713.26	-0.144
713.45	0.429
713.64	0.076
713.83	-0.115
714.03	-0.059
714.22	0.093
714.41	0.396
714.60	-0.089
714.79	0.111
714.99	-0.127
715.18	0.123
715.37	-0.072
715.56	0.034
715.75	0.141
715.94	0.065
716.14	-0.051
716.33	-0.047
716.52	-0.013
716.71	0.158
716.90	0.107
717.10	0.034
717.29	-0.116
717.48	-0.073
717.67	-0.095
717.86	-0.004
718.05	-0.155
718.24	0.178
718.44	-0.224
718.63	0.017
718.82	0.346
719.01	0.013
719.20	0.095
719.39	-0.165
719.59	0.048
719.78	0.039
719.97	0.207
720.16	0.110
720.35	0.022
720.54	-0.087
720.73	-0.135
720.93	0.078
721.12	0.047
721.31	0.070
721.50	0.185
721.69	0.009
721.88	0.188
722.07	0.017
722.27	0.035
722.46	0.079
722.65	0.137
722.84	0.106
723.03	-0.044
723.22	0.035
723.41	-0.022
723.60	0.330
723.79	-0.013
723.99	0.110
724.18	0.303
724.37	0.155
724.56	-0.004
724.75	0.004
724.94	-0.192
725.13	0.071
725.32	0.132
725.51	-0.013
725.71	-0.022
725.90	-0.169
726.09	0.045
726.28	-0.036
726.47	0.250
726.66	0.124
726.85	-0.022
727.04	-0.098
727.23	-0.040
727.42	0.045
727.61	0.036
727.81	-0.040
728.00	-0.117
728.19	0.193
728.38	-0.215
728.57	-0.112
728.76	0.018
728.95	-0.050
729.14	-0.050
729.33	0.121
729.52	-0.045
729.71	0.188
729.90	0.058
730.09	0.161
730.28	0.256
730.48	0.086
730.67	0.004
730.86	0.095
731.05	0.049
731.24	0.268
731.43	0.005
731.62	0.077
731.81	0.045
732.00	-0.135
732.19	-0.118
732.38	0.027
732.57	0.288
732.76	0.082
732.95	0.183
733.14	0.000
733.33	0.108
733.52	0.069
733.71	0.105
733.90	0.028
734.09	-0.128
734.28	-0.009
734.47	0.023
734.66	-0.205
734.85	-0.073
735.04	-0.344
735.23	-0.169
735.42	-0.202
735.61	0.055
735.81	0.127
736.00	-0.152
736.19	0.023
736.38	0.046
736.57	0.051
736.76	0.137
736.95	-0.200
737.14	0.302
737.33	-0.064
737.52	0.074
737.71	0.191
737.90	0.074
738.09	0.130
738.28	-0.083
738.47	-0.163
738.66	0.028
738.85	0.107
739.04	0.084
739.22	0.143
739.41	-0.098
739.60	-0.168
739.79	0.264
739.98	0.046
740.17	0.051
740.36	0.263
740.55	0.070
740.74	-0.038
740.93	0.019
741.12	-0.066
741.31	-0.057
741.50	0.038
741.69	-0.188
741.88	-0.038
742.07	-0.334
742.26	0.215
742.45	0.118
742.64	-0.080
742.83	-0.038
743.02	-0.112
743.21	0.175
743.40	-0.043
743.59	-0.052
743.78	-0.293
743.97	0.208
744.16	-0.038
744.34	-0.095
744.53	0.019
744.72	0.285
744.91	-0.285
745.10	-0.160
745.29	-0.165
745.48	0.010
745.67	0.190
745.86	0.109
746.05	-0.201
746.24	0.135
746.43	0.077
746.62	0.123
746.81	-0.134
747.00	0.138
747.18	-0.053
747.37	0.154
747.56	-0.241
747.75	0.169
747.94	0.092
748.13	0.189
748.32	0.181
748.51	-0.277
748.70	0.165
748.89	0.005
749.08	0.101
749.26	-0.246
749.45	0.154
749.64	-0.141
749.83	0.106
750.02	0.440
750.21	-0.048
750.40	0.290
750.59	0.228
750.78	-0.063
750.96	-0.290
751.15	0.024
751.34	0.149
751.53	0.214
751.72	0.121
751.91	0.005
752.10	-0.324
752.29	0.395
752.47	-0.020
752.66	-0.088
752.85	-0.058
753.04	0.148
753.23	0.142
753.42	-0.108
753.61	0.059
753.80	0.219
753.98	0.030
754.17	0.015
754.36	0.064
754.55	-0.073
754.74	-0.098
754.93	0.149
755.12	0.059
755.30	0.147
755.49	0.360
755.68	0.148
755.87	-0.064
756.06	0.172
756.25	0.054
756.43	-0.105
756.62	-0.170
756.81	0.288
757.00	-0.010
757.19	-0.015
757.38	0.049
757.56	0.200
757.75	0.020
757.94	-0.276
758.13	0.050
758.32	-0.176
758.51	0.155
758.69	-0.045
758.88	0.045
759.07	0.361
759.26	0.000
759.45	-0.085
759.63	0.326
759.82	0.191
760.01	-0.248
760.20	0.170
760.39	-0.113
760.57	-0.244
760.76	0.115
760.95	-0.279
761.14	-0.143
761.33	0.066
761.51	-0.051
761.70	-0.051
761.89	-0.101
762.08	0.162
762.27	0.177
762.45	-0.163
762.64	0.173
762.83	0.102
763.02	-0.102
763.21	-0.123
763.39	0.108
763.58	0.041
763.77	0.194
763.96	-0.171
764.14	0.066
764.33	-0.031
764.52	-0.083
764.71	-0.067
764.89	0.174
765.08	0.175
765.27	0.129
765.46	0.180
765.65	0.201
765.83	0.172
766.02	-0.094
766.21	0.067
766.40	-0.271
766.58	0.173
766.77	-0.131
766.96	0.036
767.15	-0.314
767.33	-0.083
767.52	0.268
767.71	0.047
767.90	-0.152
768.08	-0.010
768.27	0.099
768.46	-0.068
768.64	0.138
768.83	-0.053
769.02	0.016
769.21	0.016
769.39	0.269
769.58	0.508
769.77	0.167
769.96	-0.402
770.14	0.106
770.33	-0.159
770.52	0.506
770.70	0.116
770.89	-0.058
771.08	0.204
771.27	0.086
771.45	0.053
771.64	-0.059
771.83	0.415
772.01	-0.226
772.20	0.032
772.39	0.005
772.57	-0.086
772.76	0.102
772.95	0.124
773.14	0.080
773.32	-0.145
773.51	0.173
773.70	-0.102
773.88	0.043
774.07	-0.120
774.26	0.195
774.44	-0.125
774.63	0.027
774.82	0.116
775.00	-0.038
775.19	-0.154
775.38	-0.082
775.56	-0.175
775.75	0.294
775.94	0.038
776.12	-0.303
776.31	0.153
776.50	0.061
776.68	0.211
776.87	0.050
777.06	0.291
777.24	0.207
777.43	0.417
777.62	0.017
777.80	0.044
777.99	0.134
778.18	0.334
778.36	-0.090
778.55	0.260
778.74	0.000
778.92	-0.101
779.11	-0.106
779.29	0.000
779.48	0.028
779.67	0.096
779.85	-0.011
780.04	0.140
780.23	-0.137
780.41	0.249
780.60	0.125
780.79	0.289
780.97	-0.011
781.16	-0.114
781.34	0.062
781.53	0.080
781.72	-0.028
781.90	-0.097
782.09	-0.109
782.28	-0.162
782.46	0.375
782.65	-0.011
782.83	0.012
783.02	-0.064
783.21	-0.241
783.39	0.199
783.58	0.596
783.76	-0.012
783.95	0.364
784.14	-0.041
784.32	-0.269
784.51	0.293
784.69	0.071
784.88	0.253
785.06	0.088
785.25	0.159
785.44	0.602
785.62	-0.029
785.81	0.076
785.99	0.177
786.18	-0.065
786.37	0.236
786.55	-0.137
786.74	0.236
786.92	0.348
787.11	-0.132
787.29	-0.024
787.48	0.185
787.67	0.227
787.85	0.132
788.04	-0.272
788.22	0.065
788.41	0.638
788.59	0.285
788.78	0.108
788.96	0.168
789.15	0.120
789.34	0.346
789.52	-0.127
789.71	-0.091
789.89	0.421
790.08	-0.061
790.26	0.031
790.45	-0.048
790.63	0.086
790.82	0.018
791.00	0.680
791.19	0.362
791.38	0.067
791.56	0.292
791.75	0.301
791.93	-0.285
792.12	0.167
792.30	0.205
792.49	0.221
792.67	0.117
792.86	0.055
793.04	0.350
793.23	0.246
793.41	0.224
793.60	0.205
793.78	0.074
793.97	0.218
794.15	0.308
794.34	0.181
794.52	-0.075
794.71	0.378
794.89	0.231
795.08	0.543
795.26	0.038
795.45	0.187
795.63	0.148
795.82	-0.006
796.00	0.200
796.19	-0.182
796.37	0.423
796.56	-0.019
796.74	0.311
796.93	0.199
797.11	0.614
797.30	-0.068
797.48	0.280
797.67	0.167
797.85	0.369
798.04	0.219
798.22	0.305
798.41	0.169
798.59	0.144
798.77	0.236
798.96	0.000
799.14	-0.094
799.33	0.125
799.51	0.117
799.70	0.074
799.88	0.368
800.07	0.081
800.25	0.019
800.44	0.099
800.62	-0.265
800.80	0.321
800.99	0.151
801.17	-0.185
801.36	0.185
801.54	0.220
801.73	-0.171
801.91	0.108
802.10	0.366
802.28	-0.210
802.46	0.347
802.65	-0.169
802.83	0.305
803.02	0.298
803.20	0.160
803.39	0.236
803.57	0.173
803.75	0.404
803.94	0.006
804.12	0.146
804.31	0.386
804.49	0.288
804.67	0.780
804.86	0.402
805.04	0.346
805.23	-0.141
805.41	0.154
805.59	0.311
805.78	0.142
805.96	-0.239
806.15	0.638
806.33	-0.207
806.51	0.143
806.70	0.221
806.88	-0.032
807.07	0.284
807.25	0.216
807.43	0.152
807.62	0.178
807.80	0.305
807.99	0.223
808.17	0.351
808.35	0.053
808.54	0.536
808.72	0.172
808.90	-0.013
809.09	0.079
809.27	0.466
809.46	0.372
809.64	-0.040
809.82	0.332
810.01	-0.161
810.19	0.107
810.37	0.391
810.56	0.328
810.74	0.292
810.92	0.614
811.11	0.602
811.29	-0.047
811.48	0.090
811.66	0.122
811.84	0.358
812.03	0.000
812.21	0.261
812.39	0.350
812.58	-0.145
812.76	0.370
812.94	0.242
813.13	-0.124
813.31	0.440
813.49	0.048
813.68	0.221
813.86	0.360
814.04	0.146
814.23	0.334
814.41	0.322
814.59	0.127
814.78	0.332
814.96	0.563
815.14	-0.098
815.33	-0.205
815.51	0.353
815.69	0.085
815.87	-0.014
816.06	0.438
816.24	0.227
816.42	-0.043
816.61	-0.087
816.79	0.150
816.97	0.372
817.16	0.393
817.34	-0.474
817.52	0.167
817.70	0.224
817.89	0.195
818.07	0.283
818.25	0.154
818.44	0.306
818.62	0.168
818.80	0.455
818.98	0.250
819.17	0.863
819.35	0.306
819.53	0.111
819.72	0.576
819.90	0.678
820.08	0.126
820.26	0.201
820.45	0.410
820.63	0.382
820.81	0.459
820.99	0.395
821.18	0.275
821.36	0.218
821.54	0.566
821.73	0.516
821.91	-0.038
822.09	-0.152
822.27	0.319
822.46	0.496
822.64	0.459
822.82	0.536
823.00	-0.031
823.19	0.760
823.37	0.603
823.55	0.000
823.73	0.278
823.91	0.077
824.10	0.309
824.28	0.319
824.46	0.262
824.64	0.163
824.83	0.131
825.01	0.132
825.19	0.248
825.37	0.330
825.56	0.479
825.74	0.513
825.92	0.398
826.10	-0.103
826.28	0.164
826.47	0.846
826.65	0.304
826.83	0.611
827.01	0.151
827.19	-0.024
827.38	0.341
827.56	0.251
827.74	0.655
827.92	0.273
828.10	0.850
828.29	0.775
828.47	0.196
828.65	0.154
828.83	0.563
829.01	0.448
829.20	-0.195
829.38	0.207
829.56	0.627
829.74	0.140
829.92	0.643
830.10	0.471
830.29	0.733
830.47	0.784
830.65	-0.084
830.83	-0.124
831.01	0.740
831.20	0.141
831.38	0.372
831.56	0.638
831.74	0.369
831.92	0.475
832.10	-0.017
832.29	0.767
832.47	0.791
832.65	0.287
832.83	-0.034
833.01	0.094
833.19	0.265
833.37	0.467
833.56	0.612
833.74	0.629
833.92	0.161
834.10	0.358
834.28	-0.464
834.46	0.515
834.64	0.085
834.83	0.463
835.01	0.697
835.19	0.688
835.37	0.337
835.55	-0.480
835.73	0.103
835.91	0.699
836.09	-0.009
836.28	0.294
836.46	0.276
836.64	1.004
836.82	0.660
837.00	0.536
837.18	0.769
837.36	0.679
837.54	0.511
837.72	0.531
837.91	0.272
838.09	0.732
838.27	0.549
838.45	-0.036
838.63	0.421
838.81	0.734
838.99	-0.131
839.17	0.071
839.35	0.476
839.53	0.428
839.72	0.296
839.90	0.284
840.08	1.139
840.26	0.820
840.44	0.941
840.62	0.769
840.80	1.379
840.98	0.632
841.16	0.679
841.34	1.382
841.52	0.834
841.70	0.832
841.89	1.408
842.07	1.508
842.25	1.009
842.43	1.165
842.61	1.613
842.79	1.418
842.97	1.090
843.15	1.326
843.33	2.055
843.51	1.862
843.69	1.679
843.87	1.666
844.05	2.199
844.23	1.439
844.41	1.875
844.59	1.521
844.77	1.586
844.95	2.051
845.13	1.478
845.31	1.740
845.50	1.878
845.68	1.454
845.86	1.983
846.04	2.051
846.22	1.901
846.40	1.255
846.58	1.206
846.76	1.276
846.94	1.312
847.12	1.289
847.30	1.362
847.48	1.814
847.66	1.962
847.84	1.396
848.02	1.304
848.20	1.930
848.38	0.977
848.56	1.141
848.74	0.525
848.92	1.259
849.10	1.388
849.28	1.157
849.46	1.414
849.64	0.296
849.82	0.966
850.00	1.041
850.18	0.978
850.36	0.741
850.54	0.835
850.72	0.456
850.90	1.217
851.08	0.532
851.26	0.156
851.44	0.490
851.62	0.293
851.80	0.677
851.98	0.296
852.16	0.362
852.34	0.257
852.52	0.287
852.70	0.310
852.87	0.274
853.05	0.470
853.23	0.281
853.41	0.330
853.59	0.375
853.77	0.514
853.95	0.974
854.13	0.030
854.31	1.122
854.49	0.311
854.67	0.560
854.85	0.503
855.03	0.979
855.21	0.506
855.39	0.447
855.57	0.934
855.75	0.364
855.93	0.031
856.11	0.357
856.28	0.635
856.46	0.267
856.64	0.842
856.82	0.388
857.00	0.716
857.18	0.398
857.36	0.807
857.54	0.010
857.72	0.445
857.90	0.688
858.08	1.125
858.26	0.750
858.44	0.501
858.61	-0.198
858.79	0.420
858.97	0.428
859.15	0.724
859.33	0.714
859.51	0.125
859.69	0.603
859.87	0.692
860.05	-0.021
860.23	0.380
860.40	0.983
860.58	0.229
860.76	0.921
860.94	0.448
861.12	-0.282
861.30	0.138
861.48	0.271
861.66	1.242
861.84	0.343
862.01	0.679
862.19	0.683
862.37	0.664
862.55	0.504
862.73	0.675
862.91	0.415
863.09	0.226
863.27	0.826
863.44	0.644
863.62	1.095
863.80	0.946
863.98	-0.400
864.16	0.742
864.34	1.093
864.52	0.945
864.69	1.178
864.87	0.599
865.05	0.247
865.23	0.860
865.41	0.584
865.59	0.350
865.76	0.293
865.94	0.438
866.12	0.436
866.30	0.928
866.48	1.011
866.66	0.600
866.83	0.547
867.01	0.356
867.19	0.553
867.37	0.605
867.55	0.495
867.73	0.560
867.90	0.699
868.08	0.610
868.26	0.343
868.44	0.815
868.62	0.387
868.79	0.764
868.97	0.814
869.15	0.383
869.33	0.762
869.51	0.357
869.69	1.116
869.86	0.397
870.04	1.064
870.22	-0.137
870.40	1.106
870.57	0.752
870.75	0.429
870.93	0.681
871.11	1.024
871.29	0.258
871.46	0.365
871.64	-0.177
871.82	0.829
872.00	1.044
872.18	0.605
872.35	1.140
872.53	0.559
872.71	0.465
872.89	0.580
873.06	-0.454
873.24	0.916
873.42	1.409
873.60	0.889
873.77	0.083
873.95	0.310
874.13	0.468
874.31	0.469
874.49	0.617
874.66	0.289
874.84	-0.095
875.02	0.297
875.20	0.600
875.37	0.755
875.55	0.437
875.73	0.255
875.91	0.893
876.08	0.830
876.26	0.683
876.44	0.752
876.61	1.124
876.79	1.006
876.97	1.008
877.15	1.039
877.32	0.685
877.50	0.773
877.68	0.836
877.86	0.571
878.03	0.891
878.21	0.707
878.39	0.392
878.56	0.735
878.74	1.139
878.92	-0.271
879.10	0.794
879.27	0.793
879.45	0.992
879.63	0.400
879.80	-0.160
879.98	0.379
880.16	0.628
880.34	0.807
880.51	0.739
880.69	0.510
880.87	-0.403
881.04	0.981
881.22	0.614
881.40	0.183
881.57	0.838
881.75	0.811
881.93	0.835
882.10	-0.037
882.28	0.120
882.46	0.955
882.63	0.989
882.81	0.249
882.99	0.440
883.16	0.529
883.34	0.886
883.52	0.320
883.69	0.664
883.87	1.140
884.05	0.594
884.22	0.986
884.40	0.739
884.58	-0.196
884.75	-0.183
884.93	1.432
885.11	0.450
885.28	0.084
885.46	0.282
885.64	0.183
885.81	0.254
885.99	0.952
886.17	1.273
886.34	0.220
886.52	1.220
886.70	0.719
886.87	0.694
887.05	0.576
887.22	0.655
887.40	0.627
887.58	0.408
887.75	0.797
887.93	0.472
888.11	0.791
888.28	0.236
888.46	0.442
888.63	1.391
888.81	-0.302
888.99	0.931
889.16	0.483
889.34	0.287
889.51	1.402
889.69	0.352
889.87	0.839
890.04	0.284
890.22	0.051
890.39	0.331
890.57	0.617
890.75	0.974
890.92	0.559
891.10	1.587
891.27	0.538
891.45	0.298
891.63	0.465
891.80	1.285
891.98	0.486
892.15	0.514
892.33	0.385
892.51	0.571
892.68	0.867
892.86	0.350
893.03	1.045
893.21	0.341
893.38	0.450
893.56	1.236
893.74	1.143
893.91	0.141
894.09	0.367
894.26	1.355
894.44	0.278
894.61	1.143
894.79	0.187
894.96	0.505
895.14	1.320
895.32	0.914
895.49	0.710
895.67	-0.051
895.84	0.403
896.02	1.045
896.19	0.687
896.37	0.979
896.54	1.358
896.72	0.376
896.89	1.050
897.07	0.790
897.25	1.195
897.42	0.738
897.60	0.629
897.77	0.490
897.95	1.236
898.12	0.560
898.30	1.044
898.47	-0.338
898.65	1.263
898.82	-0.106
899.00	0.928
899.17	0.485
899.35	1.375
899.52	0.906
899.70	0.529
899.87	1.061
900.05	0.704
900.22	0.521
900.40	0.616
900.57	1.386
900.75	1.215
900.92	0.913
901.10	-0.177
901.27	1.156
901.45	0.293
901.62	0.731
901.80	0.305
901.97	1.378
902.15	0.788
902.32	0.642
902.50	1.473
902.67	0.423
902.85	1.477
903.02	2.095
903.20	1.235
903.37	1.718
903.54	1.658
903.72	0.915
903.89	1.609
904.07	1.679
904.24	1.480
904.42	0.692
904.59	1.862
904.77	2.228
904.94	2.250
905.12	2.068
905.29	1.823
905.47	1.510
905.64	1.231
905.81	1.941
905.99	2.554
906.16	3.391
906.34	2.946
906.51	3.676
906.69	3.967
906.86	4.472
907.03	3.419
907.21	3.596
907.38	4.516
907.56	5.217
907.73	5.523
907.91	6.486
908.08	6.522
908.25	7.072
908.43	7.841
908.60	6.841
908.78	8.624
908.95	8.693
909.13	9.538
909.30	8.414
909.47	8.505
909.65	10.557
909.82	10.185
910.00	10.636
910.17	10.770
910.34	11.372
910.52	11.690
910.69	13.151
910.87	13.388
911.04	14.526
911.21	15.529
911.39	15.944
911.56	17.154
911.73	17.900
911.91	19.050
912.08	19.611
912.26	20.961
912.43	21.806
912.60	23.660
912.78	24.204
912.95	22.392
913.13	23.721
913.30	24.764
913.47	24.473
913.65	23.859
913.82	26.363
913.99	26.021
914.17	26.391
914.34	26.141
914.51	25.595
914.69	26.463
914.86	25.835
915.03	25.655
915.21	26.019
915.38	25.198
915.56	25.330
915.73	24.518
915.90	23.817
916.08	23.912
916.25	25.058
916.42	23.205
916.60	22.389
916.77	22.151
916.94	21.459
917.12	20.187
917.29	20.176
917.46	20.671
917.64	19.694
917.81	18.876
917.98	19.013
918.16	18.499
918.33	19.239
918.50	17.707
918.67	16.704
918.85	18.203
919.02	16.667
919.19	15.642
919.37	15.328
919.54	14.736
919.71	15.883
919.89	15.005
920.06	15.218
920.23	16.661
920.41	14.929
920.58	14.108
920.75	16.051
920.92	15.165
921.10	13.994
921.27	14.181
921.44	14.006
921.62	13.741
921.79	13.375
921.96	13.366
922.13	13.911
922.31	13.513
922.48	14.113
922.65	13.924
922.82	14.344
923.00	14.823
923.17	12.961
923.34	13.040
923.52	13.304
923.69	13.477
923.86	13.278
924.03	12.623
924.21	13.998
924.38	14.363
924.55	14.267
924.72	14.971
924.90	16.512
925.07	15.162
925.24	16.500
925.41	15.093
925.59	15.168
925.76	15.650
925.93	14.536
926.10	17.009
926.28	14.383
926.45	16.505
926.62	15.886
926.79	16.625
926.96	15.955
927.14	17.624
927.31	18.087
927.48	18.042
927.65	17.654
927.83	19.407
928.00	19.308
928.17	20.569
928.34	19.690
928.51	21.531
928.69	20.941
928.86	22.128
929.03	22.358
929.20	24.424
929.37	22.295
929.55	23.628
929.72	23.948
929.89	26.898
930.06	27.649
930.23	25.031
930.41	27.331
930.58	29.878
930.75	30.824
930.92	30.338
931.09	31.826
931.27	31.807
931.44	32.126
931.61	33.197
931.78	34.911
931.95	34.639
932.12	38.569
932.30	38.870
932.47	38.300
932.64	39.813
932.81	42.159
932.98	42.692
933.16	43.512
933.33	45.195
933.50	43.820
933.67	48.980
933.84	48.681
934.01	48.541
934.18	49.755
934.36	51.498
934.53	53.932
934.70	51.750
934.87	55.418
935.04	52.315
935.21	53.955
935.38	55.714
935.56	57.236
935.73	58.254
935.90	56.950
936.07	57.667
936.24	58.166
936.41	60.986
936.58	59.454
936.76	58.870
936.93	61.521
937.10	61.372
937.27	59.806
937.44	57.159
937.61	59.991
937.78	59.333
937.95	62.966
938.13	61.864
938.30	61.621
938.47	59.264
938.64	59.588
938.81	57.966
938.98	59.026
939.15	60.688
939.32	60.239
939.49	61.159
939.66	60.807
939.84	59.951
940.01	57.947
940.18	57.852
940.35	61.628
940.52	60.781
940.69	61.294
940.86	61.698
941.03	60.744
941.20	61.852
941.37	62.532
941.54	59.230
941.71	62.036
941.89	62.049
942.06	65.262
942.23	60.144
942.40	63.291
942.57	63.841
942.74	62.225
942.91	64.772
943.08	62.939
943.25	61.800
943.42	64.132
943.59	63.487
943.76	62.029
943.93	63.485
944.10	63.089
944.27	64.106
944.44	62.447
944.61	65.278
944.79	62.536
944.96	65.371
945.13	64.301
945.30	60.016
945.47	59.573
945.64	62.899
945.81	62.572
945.98	58.733
946.15	59.441
946.32	55.633
946.49	57.931
946.66	59.775
946.83	56.285
947.00	55.163
947.17	54.358
947.34	52.753
947.51	52.016
947.68	50.652
947.85	51.730
948.02	49.267
948.19	47.808
948.36	47.094
948.53	41.896
948.70	44.361
948.87	45.077
949.04	44.288
949.21	43.348
949.38	41.212
949.55	42.113
949.72	38.541
949.89	39.062
950.06	36.765
950.23	36.826
950.40	34.117
950.57	34.816
950.74	33.395
950.91	33.425
951.08	33.787
951.25	31.380
951.42	33.039
951.59	31.581
951.76	28.190
951.93	27.773
952.10	29.475
952.27	27.244
952.44	26.684
952.61	27.114
952.77	25.999
952.94	26.824
953.11	27.003
953.28	27.586
953.45	25.504
953.62	24.404
953.79	23.217
953.96	26.556
954.13	24.793
954.30	24.868
954.47	26.111
954.64	23.230
954.81	25.300
954.98	23.545
955.15	24.836
955.32	26.202
955.49	24.889
955.65	24.909
955.82	27.396
955.99	27.396
956.16	25.399
956.33	27.316
956.50	27.571
956.67	27.333
956.84	27.613
957.01	30.676
957.18	28.112
957.35	29.086
957.52	30.834
957.68	31.982
957.85	31.962
958.02	33.937
958.19	36.263
958.36	34.016
958.53	36.474
958.70	39.764
958.87	36.679
959.04	38.909
959.21	37.866
959.37	38.701
959.54	42.265
959.71	39.706
959.88	37.577
960.05	40.213
960.22	42.269
960.39	39.223
960.56	40.327
960.72	41.889
960.89	41.078
961.06	40.724
961.23	37.472
961.40	40.304
961.57	38.987
961.74	39.137
961.90	38.326
962.07	37.341
962.24	38.300
962.41	36.728
962.58	35.027
962.75	33.144
962.92	32.840
963.08	32.003
963.25	28.965
963.42	30.315
963.59	31.218
963.76	26.176
963.93	30.176
964.10	27.269
964.26	24.754
964.43	23.249
964.60	24.246
964.77	23.654
964.94	20.868
965.10	22.439
965.27	19.694
965.44	19.116
965.61	19.625
965.78	17.328
965.95	18.768
966.11	17.052
966.28	17.563
966.45	14.446
966.62	17.382
966.79	16.036
966.95	12.877
967.12	15.794
967.29	15.915
967.46	13.481
967.63	12.404
967.79	11.742
967.96	11.561
968.13	11.131
968.30	12.394
968.47	9.470
968.63	9.819
968.80	11.604
968.97	9.601
969.14	9.211
969.31	12.562
969.47	7.814
969.64	9.066
969.81	5.662
969.98	10.014
970.14	7.014
970.31	7.414
970.48	9.310
970.65	10.105
970.81	6.170
970.98	8.264
971.15	5.718
971.32	7.800
971.48	6.319
971.65	7.815
971.82	6.963
971.99	4.466
972.15	6.621
972.32	8.828
972.49	8.551
972.66	9.082
972.82	9.682
972.99	11.399
973.16	11.062
973.33	14.467
973.49	8.206
973.66	9.759
973.83	12.819
974.00	14.603
974.16	9.598
974.33	12.081
974.50	13.875
974.67	11.117
974.83	16.218
975.00	13.660
975.17	12.399
975.33	17.126
975.50	15.234
975.67	18.783
975.84	17.594
976.00	20.095
976.17	19.168
976.34	17.091
976.50	17.984
976.67	19.966
976.84	18.338
977.00	18.606
977.17	22.204
977.34	21.409
977.50	23.313
977.67	24.383
977.84	23.553
978.01	24.225
978.17	29.309
978.34	25.335
978.51	26.235
978.67	25.476
978.84	27.303
979.01	21.713
979.17	27.930
979.34	23.785
979.51	25.000
979.67	25.462
979.84	32.054
980.01	26.930
980.17	24.071
980.34	21.437
980.51	21.611
980.67	28.176
980.84	22.163
981.01	23.296
981.17	25.496
981.34	25.736
981.50	21.277
981.67	21.499
981.84	22.677
982.00	21.226
982.17	17.421
982.34	19.223
982.50	19.153
982.67	18.609
982.84	20.614
983.00	17.414
983.17	13.802
983.33	13.226
983.50	18.252
983.67	10.388
983.83	13.012
984.00	15.077
984.17	14.810
984.33	10.854
984.50	15.631
984.66	12.925
984.83	10.587
985.00	11.561
985.16	11.693
985.33	7.008
985.49	15.951
985.66	9.658
985.83	9.782
985.99	9.530
986.16	5.658
986.32	5.748
986.49	9.615
986.66	5.496
986.82	9.629
986.99	9.964
987.15	7.924
987.32	3.043
987.49	8.309
987.65	5.895
987.82	9.628
987.98	8.546
988.15	10.649
988.31	3.015
988.48	6.329
988.65	7.326
988.81	1.975
988.98	8.782
989.14	-0.384
989.31	4.941
989.47	6.406
989.64	3.949
989.80	8.438
989.97	6.792
990.14	3.052
990.30	3.044
990.47	4.598
990.63	11.429
990.80	6.376
990.96	4.170
991.13	4.053
991.29	3.466
991.46	4.485
991.62	5.906
991.79	4.786
991.95	7.216
992.12	10.207
992.29	1.259
992.45	3.655
992.62	11.477
992.78	4.534
992.95	4.131
993.11	3.273
993.28	6.583
993.44	-0.173
993.61	3.419
993.77	4.455
993.94	7.295
994.10	8.232
994.27	5.451
994.43	9.756
994.60	5.920
994.76	4.302
994.93	0.812
995.09	11.403
995.26	6.152
995.42	10.394
995.59	10.474
995.75	6.091
995.92	15.152
996.08	10.150
996.25	12.348
996.41	3.394
996.58	12.352
996.74	4.680
996.91	10.624
997.07	9.335
997.23	10.890
997.40	4.762
997.56	6.124
997.73	6.436
997.89	11.956
998.06	0.958
998.22	5.346
998.39	11.517
998.55	0.854
998.72	10.410
998.88	7.599
999.05	4.321
999.21	0.605
999.37	13.745
999.54	2.584
999.70	5.258
999.87	7.856
1000.03	10.097
1000.20	3.277
1000.36	6.689
1000.52	6.109
1000.69	10.911
1000.85	9.212
1001.02	6.958
1001.18	5.182
1001.35	3.974
1001.51	9.368
1001.67	7.907
1001.84	4.113
1002.00	3.072
1002.17	9.153
1002.33	1.689
1002.50	4.790
1002.66	8.237
1002.82	6.006
1002.99	6.264
1003.15	9.722
1003.32	0.613
1003.48	8.982
1003.64	7.829
1003.81	9.613
1003.97	7.629
1004.14	1.166
1004.30	2.448
1004.46	11.201
1004.63	9.308
1004.79	8.542
1004.95	8.095
1005.12	3.774
1005.28	13.136
1005.45	9.571
1005.61	5.409
1005.77	5.214
1005.94	3.347
1006.10	9.194
1006.26	7.755
1006.43	5.277
1006.59	6.692
1006.76	3.619
1006.92	10.471
1007.08	9.402
1007.25	3.418
1007.41	9.821
1007.57	7.921
1007.74	13.824
1007.90	11.271
1008.06	8.690
1008.23	4.439
1008.39	12.405
1008.55	17.497
1008.72	10.699
1008.88	16.517
1009.04	3.008
1009.21	1.986
1009.37	5.367
1009.53	5.590
1009.70	6.361
1009.86	16.079
1010.02	5.802
1010.19	11.094
1010.35	10.370
1010.51	20.168
1010.68	19.939
1010.84	15.875
1011.00	8.837
1011.17	14.048
1011.33	10.030
1011.49	5.714
1011.66	14.516
1011.82	11.958
1011.98	11.429
1012.14	10.463
1012.31	14.742
1012.47	12.960
1012.63	23.577
1012.80	1.861
1012.96	12.876
1013.12	13.912
1013.29	5.634
1013.45	7.143
1013.61	15.091
1013.77	13.177
1013.94	17.093
1014.10	16.462
1014.26	12.015
1014.43	17.202
1014.59	9.589
1014.75	16.306
1014.91	21.053
1015.08	15.649
1015.24	23.161
1015.40	7.738
1015.56	22.575
1015.73	14.815
1015.89	32.537
1016.05	25.551
1016.21	12.148
1016.38	30.474
1016.54	30.189
1016.70	23.732
1016.86	37.333
1017.03	27.729
1017.19	24.281
1017.35	29.801
1017.51	25.290
1017.68	19.959
1017.84	20.732
1018.00	31.407
1018.16	35.795
1018.33	36.403
1018.49	34.100
1018.65	34.831
1018.81	29.529
1018.97	36.400
1019.14	35.443
1019.30	34.129
1019.46	53.472
1019.62	50.441
1019.79	40.860
1019.95	32.584
1020.11	50.115
1020.27	34.468
1020.43	34.475
1020.60	52.123
1020.76	54.746
1020.92	57.457
1021.08	44.045
1021.24	38.426
1021.41	58.187
1021.57	63.119
1021.73	54.167
1021.89	47.651
1022.05	59.645
1022.21	60.158
1022.38	43.548
1022.54	56.511
1022.70	63.733
1022.86	58.237
1023.02	60.294
1023.19	58.201
1023.35	63.492
1023.51	50.000
1023.67	51.832
1023.83	69.081
1023.99	73.780
1024.16	64.286
1024.32	38.084
1024.48	59.544
1024.64	56.970
1024.80	59.557
1024.96	58.981
1025.12	58.101
1025.29	57.702
1025.45	39.875
1025.61	52.326
1025.77	41.114
1025.93	59.542
1026.09	64.888
1026.26	48.867
1026.42	61.930
1026.58	66.558
1026.74	60.148
1026.90	45.152
1027.06	35.350
1027.22	44.954
1027.38	48.437
1027.55	45.643
1027.71	50.000
1027.87	48.209
1028.03	51.466
1028.19	42.647
1028.35	41.810
1028.51	46.715
1028.67	50.175
1028.83	32.331
1029.00	40.824
1029.16	36.996
1029.32	55.144
1029.48	45.221
1029.64	36.755
1029.80	41.053
1029.96	33.866
1030.12	34.014
1030.28	55.068
1030.44	56.000
1030.61	59.766
1030.77	34.921
1030.93	43.726
1031.09	34.034
1031.25	48.372
1031.41	32.692
1031.57	43.956
1031.73	42.920
1031.89	53.469
1032.05	20.884
1032.21	39.910
1032.37	36.626
1032.53	51.364
1032.69	67.078
1032.86	62.778
1033.02	37.379
1033.18	49.383
1033.34	33.333
1033.50	21.026
1033.66	39.706
1033.82	37.229
1033.98	45.106
1034.14	47.024
1034.30	63.717
1034.46	44.304
1034.62	17.544
1034.78	55.157
1034.94	20.233
1035.10	52.000
1035.26	53.448
1035.42	52.941
1035.58	46.951
1035.74	55.405
1035.90	43.367
1036.06	56.098
1036.22	52.885
1036.38	43.662
1036.54	60.280
1036.70	60.440
1036.86	68.750
1037.02	83.448
1037.18	50.538
1037.34	53.333
1037.50	74.194
1037.66	85.315
1037.82	22.222
1037.98	65.482
1038.14	85.965
1038.30	63.462
1038.46	106.081
1038.62	54.315
1038.78	121.875
1038.94	96.094
1039.10	65.608
1039.26	55.090
1039.42	129.630
1039.58	71.277
1039.74	82.432
1039.90	55.128
1040.06	119.608
>>>>>End Processed Spectral Data<<<<<
