SpectraSuite Data File
++++++++++++++++++++++++++++++++++++
Date: Mon Mar 27 20:00:06 EEST 2017
User: TheoProf
Dark Spectrum Present: Yes
Reference Spectrum Present: Yes
Number of Sampled Component Spectra: 1
Spectrometers: USB4C02475
Integration Time (usec): 426341 (USB4C02475)
Spectra Averaged: 1 (USB4C02475)
Boxcar Smoothing: 0 (USB4C02475)
Correct for Electrical Dark: No (USB4C02475)
Strobe/Lamp Enabled: No (USB4C02475)
Correct for Detector Non-linearity: No (USB4C02475)
Correct for Stray Light: No (USB4C02475)
Number of Pixels in Processed Spectrum: 3648
>>>>>Begin Processed Spectral Data<<<<<
344.91	35.294
345.13	35.294
345.35	35.294
345.57	0.000
345.79	12.963
346.00	-684.211
346.22	-242.105
346.44	491.667
346.66	1250.000
346.87	221.667
347.09	0.000
347.31	-407.692
347.53	-296.429
347.74	-15.625
347.96	-83.333
348.18	365.000
348.40	925.000
348.61	-192.000
348.83	18.750
349.05	-214.286
349.27	112.857
349.48	-533.333
349.70	295.238
349.92	1140.000
350.14	-1157.143
350.35	1975.000
350.57	227.273
350.79	380.952
351.01	416.327
351.22	408.108
351.44	-828.571
351.66	168.254
351.87	324.324
352.09	116.418
352.31	145.946
352.53	360.000
352.74	126.087
352.96	117.544
353.18	187.500
353.40	187.234
353.61	608.696
353.83	171.831
354.05	825.000
354.26	-3333.333
354.48	1750.000
354.70	-330.000
354.92	121.918
355.13	360.714
355.35	-1336.364
355.57	72.222
355.78	146.053
356.00	608.333
356.22	145.161
356.44	2075.000
356.65	940.000
356.87	1120.000
357.09	625.000
357.30	495.652
357.52	176.786
357.74	573.333
357.95	209.375
358.17	-850.000
358.39	-406.250
358.60	2450.000
358.82	258.333
359.04	177.586
359.26	72.340
359.47	303.704
359.69	207.143
359.91	322.581
360.12	250.000
360.34	-509.091
360.56	628.571
360.77	-940.000
360.99	-800.000
361.21	242.222
361.42	-3266.667
361.64	-857.143
361.86	414.286
362.07	516.667
362.29	120.000
362.51	280.000
362.72	600.000
362.94	116.071
363.16	236.667
363.37	325.000
363.59	202.857
363.81	164.865
364.02	437.500
364.24	8900.000
364.46	281.481
364.67	287.037
364.89	613.636
365.11	0.000
365.32	230.000
365.54	-200.000
365.76	-128.571
365.97	504.348
366.19	211.111
366.41	48.077
366.62	83.636
366.84	102.500
367.05	245.455
367.27	3833.333
367.49	421.429
367.70	202.174
367.92	219.512
368.14	80.000
368.35	426.923
368.57	130.120
368.79	137.363
369.00	185.965
369.22	142.000
369.43	83.516
369.65	1614.286
369.87	672.727
370.08	208.333
370.30	167.391
370.51	550.000
370.73	89.610
370.95	627.273
371.16	280.000
371.38	315.000
371.60	537.500
371.81	323.077
372.03	2700.000
372.24	165.714
372.46	140.741
372.68	130.986
372.89	93.333
373.11	74.257
373.32	-56.410
373.54	1225.000
373.76	157.576
373.97	108.333
374.19	164.557
374.40	444.118
374.62	266.667
374.84	-315.385
375.05	165.714
375.27	635.294
375.48	319.048
375.70	203.226
375.92	106.034
376.13	-1533.333
376.35	60.714
376.56	181.633
376.78	141.000
376.99	269.697
377.21	190.698
377.43	175.806
377.64	317.500
377.86	257.500
378.07	104.762
378.29	95.238
378.51	105.882
378.72	107.692
378.94	95.726
379.15	43.158
379.37	109.821
379.58	129.231
379.80	121.311
380.01	215.385
380.23	310.000
380.45	162.222
380.66	146.667
380.88	36.765
381.09	178.723
381.31	212.821
381.52	70.000
381.74	113.158
381.95	42.857
382.17	125.000
382.39	180.556
382.60	114.286
382.82	97.273
383.03	136.709
383.25	150.000
383.46	65.455
383.68	92.929
383.89	85.586
384.11	152.273
384.32	95.161
384.54	-219.048
384.76	101.075
384.97	143.548
385.19	78.571
385.40	131.507
385.62	155.714
385.83	77.647
386.05	89.655
386.26	76.033
386.48	65.934
386.69	112.000
386.91	57.447
387.12	51.111
387.34	135.135
387.55	-9.722
387.77	58.140
387.98	43.972
388.20	64.486
388.41	26.190
388.63	74.242
388.84	65.169
389.06	60.714
389.27	64.179
389.49	131.373
389.70	70.229
389.92	63.636
390.13	52.632
390.35	49.618
390.56	68.750
390.78	71.895
390.99	42.268
391.21	32.353
391.42	93.985
391.64	82.517
391.85	28.302
392.07	2.564
392.28	45.570
392.50	22.917
392.71	28.346
392.93	52.273
393.14	54.264
393.36	92.623
393.57	9.259
393.79	46.951
394.00	56.522
394.22	42.241
394.43	40.526
394.65	36.667
394.86	41.279
395.08	47.541
395.29	17.308
395.50	48.969
395.72	34.969
395.93	71.613
396.15	42.593
396.36	40.523
396.58	7.534
396.79	52.761
397.01	24.603
397.22	47.423
397.44	33.333
397.65	53.846
397.87	42.623
398.08	51.634
398.29	50.813
398.51	36.318
398.72	15.816
398.94	33.333
399.15	31.088
399.37	32.370
399.58	30.131
399.80	24.074
400.01	55.263
400.22	12.381
400.44	43.668
400.65	13.194
400.87	42.857
401.08	37.879
401.30	37.037
401.51	20.197
401.72	26.160
401.94	40.833
402.15	26.712
402.37	2.778
402.58	25.357
402.80	19.048
403.01	16.114
403.22	24.809
403.44	34.155
403.65	19.683
403.87	13.780
404.08	34.915
404.30	19.247
404.51	24.390
404.72	19.003
404.94	32.184
405.15	22.047
405.37	33.542
405.58	25.478
405.79	14.478
406.01	18.056
406.22	19.558
406.44	0.346
406.65	23.014
406.86	5.639
407.08	16.452
407.29	22.043
407.51	8.659
407.72	16.019
407.93	17.213
408.15	15.079
408.36	14.396
408.58	28.095
408.79	10.149
409.00	14.737
409.22	13.808
409.43	8.269
409.64	11.190
409.86	2.632
410.07	12.747
410.29	13.747
410.50	6.335
410.71	9.929
410.93	7.634
411.14	16.314
411.35	23.176
411.57	15.010
411.78	17.907
412.00	13.073
412.21	16.733
412.42	10.971
412.64	5.859
412.85	9.381
413.06	2.482
413.28	9.641
413.49	18.131
413.70	9.550
413.92	10.909
414.13	9.158
414.34	14.545
414.56	9.165
414.77	5.414
414.98	4.715
415.20	13.214
415.41	9.105
415.63	6.432
415.84	19.306
416.05	4.723
416.27	11.556
416.48	10.016
416.69	7.386
416.91	10.256
417.12	7.442
417.33	18.495
417.55	8.422
417.76	-2.319
417.97	2.659
418.19	2.799
418.40	2.639
418.61	5.497
418.83	9.001
419.04	5.802
419.25	5.493
419.46	5.153
419.68	6.706
419.89	7.143
420.10	6.179
420.32	5.693
420.53	5.102
420.74	9.058
420.96	6.122
421.17	7.240
421.38	4.423
421.60	-0.752
421.81	6.544
422.02	5.692
422.23	4.253
422.45	8.105
422.66	8.238
422.87	4.000
423.09	4.316
423.30	8.183
423.51	10.091
423.73	9.305
423.94	12.200
424.15	10.384
424.36	16.090
424.58	18.182
424.79	18.424
425.00	19.610
425.22	23.249
425.43	24.575
425.64	25.149
425.85	23.120
426.07	33.028
426.28	34.626
426.49	39.293
426.71	39.232
426.92	44.126
427.13	43.853
427.34	50.738
427.56	50.043
427.77	53.009
427.98	52.158
428.19	56.256
428.41	61.888
428.62	60.657
428.83	66.248
429.04	56.981
429.26	67.436
429.47	66.372
429.68	62.650
429.89	66.866
430.11	72.783
430.32	72.984
430.53	78.857
430.74	74.065
430.96	80.999
431.17	81.245
431.38	77.003
431.59	81.689
431.81	79.285
432.02	79.072
432.23	80.679
432.44	81.259
432.66	77.147
432.87	81.182
433.08	84.571
433.29	83.059
433.51	86.164
433.72	84.329
433.93	83.286
434.14	83.539
434.35	78.306
434.57	79.393
434.78	85.016
434.99	81.404
435.20	86.510
435.42	84.581
435.63	87.756
435.84	84.695
436.05	84.575
436.26	83.366
436.48	86.741
436.69	85.775
436.90	86.924
437.11	86.054
437.32	91.794
437.54	88.081
437.75	87.800
437.96	91.849
438.17	85.223
438.38	91.812
438.60	88.895
438.81	91.430
439.02	88.588
439.23	83.362
439.44	88.158
439.66	86.229
439.87	92.266
440.08	82.999
440.29	85.040
440.50	90.155
440.72	88.022
440.93	89.119
441.14	83.453
441.35	89.227
441.56	86.465
441.77	89.311
441.99	80.846
442.20	85.160
442.41	86.284
442.62	83.739
442.83	89.212
443.04	88.137
443.26	86.534
443.47	85.623
443.68	89.191
443.89	85.722
444.10	82.961
444.31	86.824
444.53	83.979
444.74	81.197
444.95	84.820
445.16	84.112
445.37	85.041
445.58	84.060
445.80	87.448
446.01	85.849
446.22	82.055
446.43	85.416
446.64	85.256
446.85	83.514
447.06	81.840
447.28	83.529
447.49	85.471
447.70	85.335
447.91	85.615
448.12	81.224
448.33	84.568
448.54	88.608
448.76	85.827
448.97	81.896
449.18	82.662
449.39	83.755
449.60	82.071
449.81	83.391
450.02	82.049
450.23	87.150
450.45	81.099
450.66	80.459
450.87	82.380
451.08	82.189
451.29	85.268
451.50	83.909
451.71	84.572
451.92	79.159
452.13	81.519
452.35	78.652
452.56	84.535
452.77	79.780
452.98	82.722
453.19	79.817
453.40	80.135
453.61	77.499
453.82	77.345
454.03	79.276
454.25	77.231
454.46	76.541
454.67	72.239
454.88	69.119
455.09	72.211
455.30	67.257
455.51	67.751
455.72	65.590
455.93	60.016
456.14	63.403
456.35	56.085
456.56	57.925
456.78	51.333
456.99	51.478
457.20	47.533
457.41	44.465
457.62	40.951
457.83	39.623
458.04	37.054
458.25	30.334
458.46	31.969
458.67	30.359
458.88	26.005
459.09	24.254
459.30	21.702
459.51	18.105
459.73	16.208
459.94	16.673
460.15	13.293
460.36	10.916
460.57	9.839
460.78	8.020
460.99	6.764
461.20	5.798
461.41	7.507
461.62	2.013
461.83	4.699
462.04	2.583
462.25	2.262
462.46	3.687
462.67	1.934
462.88	5.234
463.09	5.730
463.30	4.235
463.51	4.000
463.72	3.401
463.93	2.498
464.15	0.762
464.36	2.263
464.57	2.789
464.78	2.948
464.99	2.543
465.20	3.447
465.41	2.088
465.62	3.761
465.83	2.866
466.04	2.397
466.25	3.556
466.46	3.213
466.67	2.884
466.88	2.232
467.09	2.240
467.30	1.275
467.51	2.053
467.72	1.847
467.93	0.148
468.14	2.523
468.35	2.087
468.56	2.547
468.77	2.982
468.98	3.614
469.19	2.567
469.40	1.409
469.61	1.542
469.82	1.217
470.03	1.817
470.24	2.041
470.45	3.581
470.66	3.191
470.87	1.922
471.08	2.515
471.29	0.823
471.50	4.363
471.71	0.469
471.92	2.595
472.13	2.950
472.34	2.796
472.55	3.052
472.76	1.664
472.97	2.287
473.18	1.402
473.39	2.624
473.60	2.252
473.81	1.561
474.01	2.257
474.22	0.527
474.43	2.241
474.64	2.451
474.85	0.677
475.06	1.205
475.27	0.387
475.48	1.619
475.69	1.367
475.90	0.885
476.11	0.821
476.32	2.864
476.53	1.350
476.74	1.538
476.95	2.801
477.16	2.273
477.37	1.186
477.58	2.459
477.79	2.103
478.00	0.542
478.21	2.189
478.41	1.857
478.62	1.023
478.83	1.827
479.04	1.539
479.25	1.280
479.46	1.910
479.67	1.515
479.88	1.938
480.09	2.380
480.30	0.976
480.51	1.782
480.72	1.754
480.93	0.715
481.14	1.468
481.34	1.081
481.55	2.010
481.76	0.917
481.97	1.749
482.18	2.478
482.39	1.074
482.60	0.973
482.81	1.562
483.02	1.525
483.23	1.376
483.44	1.646
483.65	1.152
483.85	1.812
484.06	1.289
484.27	0.928
484.48	1.276
484.69	1.456
484.90	0.636
485.11	0.604
485.32	0.987
485.53	1.518
485.73	1.537
485.94	1.505
486.15	1.641
486.36	0.774
486.57	1.281
486.78	1.484
486.99	2.173
487.20	1.505
487.41	2.168
487.61	1.990
487.82	1.489
488.03	1.989
488.24	1.599
488.45	0.815
488.66	1.037
488.87	2.205
489.08	1.684
489.28	1.993
489.49	1.122
489.70	0.633
489.91	1.265
490.12	0.958
490.33	1.538
490.54	1.833
490.74	1.356
490.95	0.715
491.16	1.126
491.37	0.618
491.58	0.769
491.79	1.097
492.00	1.164
492.20	1.512
492.41	1.569
492.62	1.269
492.83	0.619
493.04	0.987
493.25	1.720
493.45	1.598
493.66	1.716
493.87	2.090
494.08	1.303
494.29	1.342
494.50	1.243
494.70	1.528
494.91	2.000
495.12	0.762
495.33	1.425
495.54	1.786
495.75	1.867
495.95	1.391
496.16	1.059
496.37	1.410
496.58	1.541
496.79	1.281
496.99	1.589
497.20	1.721
497.41	2.417
497.62	1.079
497.83	1.471
498.04	1.361
498.24	2.269
498.45	2.790
498.66	2.324
498.87	2.970
499.08	4.022
499.28	3.574
499.49	4.302
499.70	5.155
499.91	5.911
500.12	7.142
500.32	8.549
500.53	8.520
500.74	11.092
500.95	12.764
501.15	14.446
501.36	17.000
501.57	17.708
501.78	20.092
501.99	22.196
502.19	23.683
502.40	26.613
502.61	28.532
502.82	30.533
503.02	32.943
503.23	35.548
503.44	37.327
503.65	39.537
503.86	42.223
504.06	43.412
504.27	46.407
504.48	48.418
504.69	50.218
504.89	51.188
505.10	54.292
505.31	56.636
505.52	58.080
505.72	60.514
505.93	61.888
506.14	63.588
506.35	64.922
506.55	67.982
506.76	69.304
506.97	70.308
507.18	72.085
507.38	74.111
507.59	73.161
507.80	74.195
508.01	75.560
508.21	76.821
508.42	77.677
508.63	78.901
508.84	77.828
509.04	78.309
509.25	80.024
509.46	80.520
509.67	81.211
509.87	80.495
510.08	81.517
510.29	80.648
510.49	80.147
510.70	80.533
510.91	81.423
511.12	80.869
511.32	82.219
511.53	82.913
511.74	83.865
511.94	84.537
512.15	85.253
512.36	86.386
512.57	83.738
512.77	87.000
512.98	86.541
513.19	87.857
513.39	87.265
513.60	88.311
513.81	86.963
514.01	87.874
514.22	89.601
514.43	89.457
514.64	90.371
514.84	90.643
515.05	88.891
515.26	90.766
515.46	90.936
515.67	90.046
515.88	90.069
516.08	90.843
516.29	90.544
516.50	89.473
516.70	88.471
516.91	89.413
517.12	89.507
517.32	88.805
517.53	89.388
517.74	87.722
517.95	87.694
518.15	89.190
518.36	89.787
518.57	88.826
518.77	88.238
518.98	89.127
519.19	88.062
519.39	88.872
519.60	88.050
519.80	89.553
520.01	87.464
520.22	89.363
520.42	87.924
520.63	87.409
520.84	85.939
521.04	87.648
521.25	84.891
521.46	86.693
521.66	85.001
521.87	84.812
522.08	84.182
522.28	84.637
522.49	83.711
522.70	84.395
522.90	83.463
523.11	84.172
523.31	83.414
523.52	82.143
523.73	82.452
523.93	82.704
524.14	81.943
524.35	82.339
524.55	82.711
524.76	82.779
524.97	82.336
525.17	79.564
525.38	80.641
525.58	79.685
525.79	79.224
526.00	77.162
526.20	76.797
526.41	73.086
526.61	71.488
526.82	70.129
527.03	67.548
527.23	65.837
527.44	63.912
527.64	59.779
527.85	58.771
528.06	55.182
528.26	53.961
528.47	50.721
528.68	47.988
528.88	45.429
529.09	41.904
529.29	39.390
529.50	35.694
529.70	34.218
529.91	31.564
530.12	29.080
530.32	26.981
530.53	25.454
530.73	23.088
530.94	21.432
531.15	19.936
531.35	17.913
531.56	14.712
531.76	14.184
531.97	12.119
532.17	10.620
532.38	9.755
532.59	7.972
532.79	7.291
533.00	5.849
533.20	5.010
533.41	4.144
533.61	3.032
533.82	2.863
534.03	1.950
534.23	1.745
534.44	1.456
534.64	1.616
534.85	1.562
535.05	1.130
535.26	1.116
535.46	0.926
535.67	0.900
535.88	1.122
536.08	0.587
536.29	1.227
536.49	1.159
536.70	0.752
536.90	1.184
537.11	0.811
537.31	0.513
537.52	0.817
537.72	1.168
537.93	0.719
538.13	0.869
538.34	0.572
538.55	0.474
538.75	0.809
538.96	0.698
539.16	0.504
539.37	0.645
539.57	0.398
539.78	0.689
539.98	0.426
540.19	0.641
540.39	0.892
540.60	0.716
540.80	0.733
541.01	0.629
541.21	0.717
541.42	0.604
541.62	0.473
541.83	0.472
542.03	0.741
542.24	0.325
542.44	0.458
542.65	0.837
542.85	0.714
543.06	0.794
543.26	0.651
543.47	0.719
543.67	0.562
543.88	0.757
544.08	0.502
544.29	1.207
544.49	0.715
544.70	0.667
544.90	0.822
545.11	0.393
545.31	0.729
545.52	0.322
545.72	1.004
545.93	0.732
546.13	0.710
546.34	0.910
546.54	0.858
546.75	0.656
546.95	0.776
547.15	0.517
547.36	0.413
547.56	0.906
547.77	0.486
547.97	0.635
548.18	0.448
548.38	0.455
548.59	0.777
548.79	0.598
549.00	0.451
549.20	0.568
549.41	0.753
549.61	0.812
549.81	0.499
550.02	0.715
550.22	0.550
550.43	0.786
550.63	0.642
550.84	0.705
551.04	0.601
551.25	0.645
551.45	0.372
551.65	0.853
551.86	0.524
552.06	0.878
552.27	0.885
552.47	0.581
552.68	0.735
552.88	0.433
553.08	0.613
553.29	0.780
553.49	0.863
553.70	0.821
553.90	0.711
554.11	0.818
554.31	0.701
554.51	0.922
554.72	0.713
554.92	0.829
555.13	0.882
555.33	0.738
555.53	0.852
555.74	0.535
555.94	0.746
556.15	0.763
556.35	0.429
556.56	1.026
556.76	0.625
556.96	0.588
557.17	0.382
557.37	0.955
557.58	0.730
557.78	0.698
557.98	0.632
558.19	0.671
558.39	0.837
558.59	0.849
558.80	0.731
559.00	0.852
559.21	1.108
559.41	0.600
559.61	0.692
559.82	0.823
560.02	0.765
560.23	0.893
560.43	1.002
560.63	0.542
560.84	1.099
561.04	0.774
561.24	1.305
561.45	1.286
561.65	1.179
561.85	1.453
562.06	2.125
562.26	2.314
562.47	2.354
562.67	3.017
562.87	3.408
563.08	3.822
563.28	4.734
563.48	4.644
563.69	5.323
563.89	6.046
564.09	7.159
564.30	7.705
564.50	8.763
564.70	9.723
564.91	10.722
565.11	12.190
565.31	13.301
565.52	15.450
565.72	16.945
565.92	18.124
566.13	20.083
566.33	22.091
566.53	24.335
566.74	26.427
566.94	28.085
567.14	30.597
567.35	33.294
567.55	35.255
567.75	38.051
567.96	39.994
568.16	42.289
568.36	44.799
568.57	46.620
568.77	49.231
568.97	51.257
569.18	53.987
569.38	55.737
569.58	58.113
569.79	59.861
569.99	62.147
570.19	64.750
570.39	66.504
570.60	67.787
570.80	71.008
571.00	72.587
571.21	74.918
571.41	75.970
571.61	75.828
571.82	77.844
572.02	80.945
572.22	80.959
572.42	83.184
572.63	83.882
572.83	84.719
573.03	84.809
573.24	86.224
573.44	86.450
573.64	86.159
573.84	88.779
574.05	87.812
574.25	90.261
574.45	89.186
574.66	89.425
574.86	91.372
575.06	93.027
575.26	92.677
575.47	91.963
575.67	92.102
575.87	91.992
576.07	91.135
576.28	92.905
576.48	92.590
576.68	91.315
576.88	91.478
577.09	92.851
577.29	92.688
577.49	91.979
577.69	93.206
577.90	91.923
578.10	91.169
578.30	92.833
578.50	92.080
578.71	92.434
578.91	91.932
579.11	93.309
579.31	93.700
579.52	92.876
579.72	93.176
579.92	93.743
580.12	92.961
580.33	94.104
580.53	93.692
580.73	94.490
580.93	95.000
581.13	94.137
581.34	93.621
581.54	93.434
581.74	94.315
581.94	94.180
582.15	93.079
582.35	93.578
582.55	94.086
582.75	93.506
582.95	92.974
583.16	92.895
583.36	93.531
583.56	94.436
583.76	94.297
583.96	94.069
584.17	93.822
584.37	94.968
584.57	93.948
584.77	93.849
584.97	93.976
585.18	93.798
585.38	92.790
585.58	91.832
585.78	91.415
585.98	92.648
586.19	92.632
586.39	91.277
586.59	91.359
586.79	90.390
586.99	90.481
587.20	90.616
587.40	90.846
587.60	92.360
587.80	89.448
588.00	89.920
588.20	90.464
588.41	91.023
588.61	88.126
588.81	89.193
589.01	90.817
589.21	89.930
589.41	89.745
589.62	90.785
589.82	90.938
590.02	89.977
590.22	89.790
590.42	89.450
590.62	90.509
590.83	89.356
591.03	89.675
591.23	89.816
591.43	91.215
591.63	89.986
591.83	89.936
592.03	90.693
592.24	90.171
592.44	89.614
592.64	89.022
592.84	88.904
593.04	91.008
593.24	89.954
593.44	90.015
593.65	89.922
593.85	90.186
594.05	90.440
594.25	90.667
594.45	90.815
594.65	90.862
594.85	90.427
595.06	91.134
595.26	91.244
595.46	91.771
595.66	90.224
595.86	90.658
596.06	90.849
596.26	89.610
596.46	90.420
596.66	90.668
596.87	90.562
597.07	90.704
597.27	90.393
597.47	91.338
597.67	91.043
597.87	90.816
598.07	90.617
598.27	91.051
598.47	90.889
598.67	90.731
598.88	90.164
599.08	89.144
599.28	90.514
599.48	88.558
599.68	89.677
599.88	89.579
600.08	90.444
600.28	91.959
600.48	90.815
600.68	91.225
600.88	91.296
601.09	91.430
601.29	92.689
601.49	90.900
601.69	91.540
601.89	91.071
602.09	90.302
602.29	89.700
602.49	89.885
602.69	91.673
602.89	91.878
603.09	92.024
603.29	92.585
603.49	90.391
603.69	90.199
603.90	90.721
604.10	90.120
604.30	89.828
604.50	89.410
604.70	88.713
604.90	89.750
605.10	88.953
605.30	89.540
605.50	88.976
605.70	89.330
605.90	88.040
606.10	88.453
606.30	88.337
606.50	88.355
606.70	87.927
606.90	88.202
607.10	88.621
607.30	87.277
607.50	89.107
607.70	86.305
607.90	86.833
608.10	86.516
608.30	86.620
608.50	84.887
608.70	85.814
608.90	84.995
609.11	85.176
609.31	86.035
609.51	85.548
609.71	85.514
609.91	84.430
610.11	84.029
610.31	84.761
610.51	85.573
610.71	84.302
610.91	84.092
611.11	84.368
611.31	84.017
611.51	83.491
611.71	83.929
611.91	83.854
612.11	83.632
612.31	84.464
612.51	83.479
612.71	84.141
612.91	84.637
613.11	85.497
613.31	84.377
613.51	84.505
613.71	84.883
613.91	85.313
614.11	85.588
614.31	83.464
614.50	83.851
614.70	83.137
614.90	83.299
615.10	82.980
615.30	82.200
615.50	82.045
615.70	81.940
615.90	81.009
616.10	81.165
616.30	79.953
616.50	80.352
616.70	80.632
616.90	81.696
617.10	79.218
617.30	79.628
617.50	78.513
617.70	78.671
617.90	78.237
618.10	77.237
618.30	76.975
618.50	76.243
618.70	75.856
618.90	75.769
619.10	75.204
619.30	74.005
619.49	73.294
619.69	72.466
619.89	71.245
620.09	72.153
620.29	70.001
620.49	68.838
620.69	67.891
620.89	66.627
621.09	66.113
621.29	65.029
621.49	63.033
621.69	62.110
621.89	60.538
622.09	57.891
622.29	57.528
622.48	55.948
622.68	54.150
622.88	52.705
623.08	50.112
623.28	48.692
623.48	46.855
623.68	44.935
623.88	43.549
624.08	42.210
624.28	40.604
624.48	38.186
624.67	37.094
624.87	35.005
625.07	33.402
625.27	31.740
625.47	30.127
625.67	27.938
625.87	26.749
626.07	25.206
626.27	23.718
626.47	22.378
626.66	20.715
626.86	19.466
627.06	17.581
627.26	16.555
627.46	15.139
627.66	14.091
627.86	12.884
628.06	11.931
628.25	11.126
628.45	9.730
628.65	8.518
628.85	7.923
629.05	7.180
629.25	6.635
629.45	5.851
629.65	5.307
629.84	5.070
630.04	4.286
630.24	3.851
630.44	3.236
630.64	3.034
630.84	2.256
631.04	2.356
631.23	1.933
631.43	1.301
631.63	1.291
631.83	1.334
632.03	1.026
632.23	0.858
632.42	0.741
632.62	0.752
632.82	0.598
633.02	0.441
633.22	0.492
633.42	0.414
633.62	0.469
633.81	0.515
634.01	0.240
634.21	0.452
634.41	0.345
634.61	0.426
634.80	0.314
635.00	0.351
635.20	0.397
635.40	0.215
635.60	0.375
635.80	0.393
635.99	0.294
636.19	0.356
636.39	0.199
636.59	0.305
636.79	0.174
636.98	0.241
637.18	0.222
637.38	0.384
637.58	0.450
637.78	0.174
637.97	0.338
638.17	0.237
638.37	-0.024
638.57	0.265
638.77	0.393
638.96	0.171
639.16	0.419
639.36	0.317
639.56	0.084
639.76	0.227
639.95	0.461
640.15	0.288
640.35	0.438
640.55	0.225
640.75	0.104
640.94	0.388
641.14	0.244
641.34	0.052
641.54	0.167
641.73	0.203
641.93	0.285
642.13	0.259
642.33	0.000
642.53	0.319
642.72	0.191
642.92	0.295
643.12	0.215
643.32	0.281
643.51	0.276
643.71	0.092
643.91	0.119
644.11	-0.016
644.30	0.317
644.50	0.214
644.70	0.238
644.90	0.356
645.09	0.253
645.29	0.142
645.49	0.064
645.69	0.230
645.88	0.107
646.08	0.189
646.28	0.315
646.48	0.210
646.67	0.266
646.87	0.193
647.07	0.203
647.26	0.068
647.46	0.223
647.66	0.193
647.86	-0.169
648.05	0.516
648.25	0.059
648.45	0.047
648.65	0.111
648.84	0.271
649.04	0.110
649.24	0.114
649.43	0.332
649.63	0.456
649.83	0.443
650.03	0.150
650.22	0.244
650.42	0.178
650.62	0.201
650.81	0.036
651.01	0.241
651.21	0.181
651.40	0.296
651.60	0.181
651.80	0.111
652.00	0.039
652.19	0.133
652.39	0.079
652.59	0.154
652.78	0.141
652.98	0.217
653.18	0.168
653.37	0.303
653.57	0.083
653.77	0.227
653.96	-0.224
654.16	0.173
654.36	0.159
654.55	0.078
654.75	0.316
654.95	0.098
655.14	0.157
655.34	0.166
655.54	0.133
655.73	0.016
655.93	0.020
656.13	-0.028
656.32	0.059
656.52	0.283
656.72	0.067
656.91	0.294
657.11	0.027
657.31	0.079
657.50	0.031
657.70	-0.094
657.90	0.090
658.09	-0.083
658.29	-0.012
658.49	0.071
658.68	0.039
658.88	0.348
659.07	0.219
659.27	0.311
659.47	0.199
659.66	0.016
659.86	0.203
660.06	0.109
660.25	0.203
660.45	0.016
660.64	0.140
660.84	0.148
661.04	0.066
661.23	0.351
661.43	0.207
661.63	0.137
661.82	0.120
662.02	0.102
662.21	0.138
662.41	0.183
662.61	0.086
662.80	0.078
663.00	0.265
663.19	0.087
663.39	0.059
663.59	0.090
663.78	0.027
663.98	0.244
664.17	0.067
664.37	0.249
664.57	0.000
664.76	0.074
664.96	0.070
665.15	0.163
665.35	-0.176
665.55	0.137
665.74	0.085
665.94	0.117
666.13	-0.035
666.33	0.309
666.53	0.039
666.72	0.118
666.92	0.148
667.11	0.086
667.31	0.071
667.50	0.031
667.70	0.059
667.90	0.082
668.09	-0.062
668.29	0.027
668.48	-0.023
668.68	0.208
668.87	0.098
669.07	0.180
669.26	0.148
669.46	0.211
669.66	0.163
669.85	-0.067
670.05	0.039
670.24	0.383
670.44	0.149
670.63	0.113
670.83	0.268
671.02	0.287
671.22	-0.035
671.42	-0.157
671.61	-0.047
671.81	-0.035
672.00	0.149
672.20	0.110
672.39	0.120
672.59	0.327
672.78	0.208
672.98	0.008
673.17	0.149
673.37	-0.083
673.56	0.180
673.76	0.117
673.95	0.223
674.15	-0.035
674.34	0.090
674.54	-0.074
674.73	0.155
674.93	0.207
675.13	0.159
675.32	0.313
675.52	0.000
675.71	0.035
675.91	0.027
676.10	0.020
676.30	-0.047
676.49	0.256
676.69	0.205
676.88	-0.027
677.08	0.083
677.27	0.063
677.47	0.216
677.66	-0.035
677.86	-0.019
678.05	-0.012
678.24	0.106
678.44	-0.016
678.63	0.051
678.83	0.157
679.02	0.110
679.22	0.028
679.41	-0.097
679.61	0.020
679.80	0.055
680.00	-0.012
680.19	0.124
680.39	0.266
680.58	-0.039
680.78	0.133
680.97	0.062
681.17	0.012
681.36	0.032
681.56	0.204
681.75	0.059
681.94	0.185
682.14	0.181
682.33	-0.217
682.53	0.043
682.72	0.094
682.92	0.063
683.11	-0.043
683.31	0.150
683.50	-0.102
683.69	-0.217
683.89	0.095
684.08	0.102
684.28	0.331
684.47	0.075
684.67	-0.028
684.86	0.020
685.06	0.000
685.25	-0.166
685.44	0.020
685.64	0.028
685.83	0.012
686.03	-0.012
686.22	-0.035
686.42	-0.028
686.61	0.063
686.80	-0.151
687.00	0.217
687.19	0.111
687.39	0.079
687.58	-0.032
687.77	-0.028
687.97	0.056
688.16	-0.064
688.36	0.032
688.55	0.036
688.74	0.233
688.94	-0.223
689.13	0.165
689.33	0.187
689.52	-0.267
689.71	0.000
689.91	0.020
690.10	0.152
690.30	0.000
690.49	-0.004
690.68	-0.128
690.88	0.159
691.07	-0.099
691.27	0.087
691.46	0.110
691.65	-0.056
691.85	0.115
692.04	0.147
692.23	0.028
692.43	0.024
692.62	0.096
692.82	0.079
693.01	0.195
693.20	0.016
693.40	-0.012
693.59	0.216
693.78	0.020
693.98	-0.112
694.17	0.032
694.36	0.171
694.56	0.032
694.75	0.224
694.94	0.040
695.14	0.120
695.33	0.028
695.53	0.128
695.72	-0.157
695.91	0.200
696.11	-0.008
696.30	0.012
696.49	-0.020
696.69	0.033
696.88	0.199
697.07	-0.142
697.27	-0.012
697.46	0.251
697.65	0.004
697.85	-0.141
698.04	-0.141
698.23	0.101
698.43	0.134
698.62	0.064
698.81	-0.004
699.01	0.012
699.20	0.036
699.39	0.161
699.58	0.228
699.78	0.110
699.97	-0.025
700.16	0.057
700.36	0.180
700.55	-0.106
700.74	0.129
700.94	0.090
701.13	0.240
701.32	0.078
701.52	-0.296
701.71	0.033
701.90	0.286
702.09	-0.025
702.29	0.082
702.48	0.074
702.67	0.168
702.87	0.073
703.06	0.225
703.25	0.304
703.44	0.107
703.64	0.182
703.83	0.074
704.02	0.119
704.22	0.152
704.41	0.107
704.60	0.172
704.79	0.016
704.99	0.137
705.18	0.159
705.37	0.000
705.56	0.107
705.76	0.190
705.95	-0.029
706.14	0.078
706.33	-0.158
706.53	-0.212
706.72	0.000
706.91	0.025
707.11	0.112
707.30	0.058
707.49	0.333
707.68	0.149
707.88	0.050
708.07	-0.050
708.26	0.008
708.45	0.088
708.64	0.087
708.84	-0.004
709.03	0.286
709.22	-0.172
709.41	-0.106
709.61	0.185
709.80	0.181
709.99	0.013
710.18	-0.084
710.38	0.140
710.57	-0.167
710.76	-0.059
710.95	0.174
711.14	0.193
711.34	0.194
711.53	0.047
711.72	0.212
711.91	0.034
712.11	0.110
712.30	0.059
712.49	0.064
712.68	0.084
712.87	0.089
713.07	0.178
713.26	0.051
713.45	0.212
713.64	0.216
713.83	-0.008
714.03	0.123
714.22	0.200
714.41	0.409
714.60	0.047
714.79	0.000
714.99	0.220
715.18	0.102
715.37	0.013
715.56	0.136
715.75	0.090
715.94	-0.043
716.14	0.111
716.33	-0.022
716.52	-0.207
716.71	0.141
716.90	0.115
717.10	0.125
717.29	0.233
717.48	0.017
717.67	-0.030
717.86	0.043
718.05	0.043
718.24	-0.009
718.44	0.060
718.63	0.225
718.82	0.251
719.01	0.035
719.20	0.228
719.39	-0.200
719.59	0.087
719.78	-0.087
719.97	0.004
720.16	-0.022
720.35	-0.022
720.54	0.061
720.73	0.143
720.93	0.387
721.12	-0.121
721.31	0.109
721.50	0.163
721.69	0.074
721.88	0.193
722.07	0.188
722.27	0.048
722.46	0.145
722.65	0.097
722.84	0.220
723.03	0.133
723.22	0.000
723.41	0.106
723.60	0.291
723.79	0.070
723.99	-0.053
724.18	0.250
724.37	0.057
724.56	-0.044
724.75	0.048
724.94	-0.013
725.13	0.292
725.32	0.083
725.51	0.013
725.71	-0.155
725.90	-0.053
726.09	0.076
726.28	0.027
726.47	0.121
726.66	0.244
726.85	0.261
727.04	-0.053
727.23	0.062
727.42	0.027
727.61	0.089
727.81	0.076
728.00	-0.108
728.19	0.031
728.38	-0.085
728.57	-0.013
728.76	0.054
728.95	0.108
729.14	0.158
729.33	0.206
729.52	-0.027
729.71	0.381
729.90	-0.117
730.09	0.170
730.28	0.049
730.48	-0.018
730.67	0.009
730.86	0.144
731.05	0.170
731.24	0.331
731.43	0.027
731.62	0.105
731.81	-0.082
732.00	-0.054
732.19	0.190
732.38	0.223
732.57	0.329
732.76	0.114
732.95	0.277
733.14	-0.077
733.33	0.235
733.52	0.356
733.71	0.277
733.90	0.225
734.09	-0.119
734.28	0.082
734.47	0.174
734.66	0.023
734.85	-0.068
735.04	-0.096
735.23	0.128
735.42	0.110
735.61	0.064
735.81	0.213
736.00	-0.213
736.19	0.165
736.38	-0.023
736.57	0.000
736.76	0.101
736.95	-0.121
737.14	0.279
737.33	0.046
737.52	0.106
737.71	0.228
737.90	0.110
738.09	0.326
738.28	-0.028
738.47	-0.047
738.66	0.130
738.85	0.167
739.04	0.167
739.22	0.143
739.41	0.042
739.60	0.256
739.79	0.176
739.98	0.051
740.17	0.187
740.36	0.428
740.55	0.089
740.74	-0.033
740.93	0.108
741.12	0.165
741.31	-0.052
741.50	0.117
741.69	-0.070
741.88	-0.043
742.07	-0.136
742.26	0.290
742.45	0.312
742.64	0.057
742.83	0.033
743.02	-0.173
743.21	0.047
743.40	0.157
743.59	0.105
743.78	-0.104
743.97	0.388
744.16	0.223
744.34	0.028
744.53	-0.137
744.72	0.323
744.91	-0.271
745.10	-0.278
745.29	0.161
745.48	0.057
745.67	0.299
745.86	0.223
746.05	0.143
746.24	0.298
746.43	0.063
746.62	0.218
746.81	-0.053
747.00	0.286
747.18	0.357
747.37	0.365
747.56	-0.097
747.75	0.019
747.94	0.116
748.13	0.368
748.32	0.195
748.51	0.282
748.70	0.160
748.89	0.005
749.08	0.129
749.26	0.005
749.45	0.217
749.64	0.126
749.83	0.232
750.02	0.575
750.21	0.048
750.40	0.319
750.59	0.044
750.78	-0.039
750.96	0.054
751.15	0.015
751.34	0.313
751.53	0.126
751.72	0.296
751.91	-0.165
752.10	-0.044
752.29	0.376
752.47	0.255
752.66	0.107
752.85	0.117
753.04	0.064
753.23	-0.005
753.42	0.020
753.61	0.094
753.80	0.298
753.98	0.223
754.17	-0.024
754.36	0.515
754.55	-0.250
754.74	0.240
754.93	-0.030
755.12	0.108
755.30	0.278
755.49	0.266
755.68	0.084
755.87	0.010
756.06	0.197
756.25	0.089
756.43	0.105
756.62	-0.185
756.81	0.283
757.00	0.184
757.19	0.070
757.38	-0.005
757.56	0.326
757.75	0.095
757.94	-0.176
758.13	0.125
758.32	-0.111
758.51	0.050
758.69	0.020
758.88	0.154
759.07	0.212
759.26	0.230
759.45	-0.005
759.63	0.281
759.82	0.451
760.01	0.030
760.20	0.235
760.39	-0.154
760.57	-0.056
760.76	0.236
760.95	0.269
761.14	0.173
761.33	0.151
761.51	0.274
761.70	0.230
761.89	0.197
762.08	0.116
762.27	0.252
762.45	-0.066
762.64	0.076
762.83	0.457
763.02	-0.031
763.21	0.026
763.39	0.155
763.58	0.107
763.77	0.194
763.96	-0.135
764.14	0.188
764.33	-0.150
764.52	0.181
764.71	0.093
764.89	0.200
765.08	0.175
765.27	0.196
765.46	0.313
765.65	0.252
765.83	0.192
766.02	-0.021
766.21	0.124
766.40	-0.135
766.58	0.324
766.77	-0.068
766.96	-0.056
767.15	-0.073
767.33	0.109
767.52	0.278
767.71	0.126
767.90	0.115
768.08	0.235
768.27	0.230
768.46	0.078
768.64	0.466
768.83	0.016
769.02	-0.137
769.21	0.288
769.39	0.301
769.58	0.471
769.77	0.428
769.96	-0.090
770.14	0.148
770.33	0.005
770.52	0.357
770.70	0.116
770.89	0.138
771.08	0.188
771.27	0.337
771.45	0.112
771.64	0.240
771.83	0.231
772.01	-0.210
772.20	0.209
772.39	0.026
772.57	0.092
772.76	0.011
772.95	0.221
773.14	-0.097
773.32	0.118
773.51	0.168
773.70	-0.124
773.88	0.228
774.07	0.228
774.26	0.319
774.44	0.381
774.63	-0.060
774.82	0.077
775.00	0.202
775.19	0.088
775.38	0.120
775.56	-0.027
775.75	0.343
775.94	0.005
776.12	0.160
776.31	0.241
776.50	0.332
776.68	0.500
776.87	0.028
777.06	0.011
777.24	0.061
777.43	0.189
777.62	0.193
777.80	-0.005
777.99	-0.017
778.18	0.462
778.36	0.213
778.55	0.238
778.74	0.634
778.92	0.180
779.11	-0.167
779.29	0.242
779.48	0.180
779.67	0.175
779.85	0.298
780.04	0.330
780.23	0.212
780.41	0.621
780.60	0.204
780.79	0.306
780.97	-0.034
781.16	-0.176
781.34	0.090
781.53	-0.068
781.72	0.130
781.90	0.120
782.09	-0.126
782.28	0.197
782.46	0.162
782.65	0.405
782.83	0.040
783.02	0.052
783.21	0.080
783.39	0.509
783.58	0.486
783.76	0.000
783.95	0.300
784.14	0.000
784.32	-0.064
784.51	0.398
784.69	0.047
784.88	0.229
785.06	0.106
785.25	0.024
785.44	0.415
785.62	0.153
785.81	-0.112
785.99	0.118
786.18	0.071
786.37	0.507
786.55	0.257
786.74	0.836
786.92	0.265
787.11	-0.174
787.29	0.172
787.48	0.167
787.67	0.161
787.85	-0.132
788.04	0.054
788.22	0.095
788.41	0.638
788.59	0.321
788.78	0.179
788.96	0.144
789.15	0.186
789.34	0.352
789.52	-0.054
789.71	0.122
789.89	0.616
790.08	-0.006
790.26	0.159
790.45	0.103
790.63	0.172
790.82	0.413
791.00	0.667
791.19	0.252
791.38	0.206
791.56	0.238
791.75	0.110
791.93	0.081
792.12	0.315
792.30	0.428
792.49	0.289
792.67	-0.012
792.86	-0.086
793.04	0.584
793.23	0.419
793.41	0.168
793.60	0.391
793.78	0.301
793.97	0.212
794.15	0.363
794.34	0.143
794.52	0.150
794.71	0.502
794.89	0.212
795.08	0.691
795.26	-0.006
795.45	0.292
795.63	0.407
795.82	-0.069
796.00	-0.100
796.19	-0.214
796.37	0.398
796.56	0.132
796.74	0.442
796.93	0.330
797.11	0.292
797.30	0.124
797.48	0.379
797.67	0.278
797.85	0.262
798.04	0.313
798.22	0.205
798.41	0.388
798.59	0.232
798.77	0.112
798.96	-0.063
799.14	0.343
799.33	0.445
799.51	0.141
799.70	-0.105
799.88	0.131
800.07	0.385
800.25	0.238
800.44	0.217
800.62	-0.050
800.80	0.378
800.99	0.693
801.17	0.124
801.36	0.255
801.54	0.075
801.73	-0.006
801.91	-0.051
802.10	0.455
802.28	0.076
802.46	0.353
802.65	0.232
802.83	0.324
803.02	0.400
803.20	0.198
803.39	0.319
803.57	0.263
803.75	-0.032
803.94	0.286
804.12	0.445
804.31	0.289
804.49	0.256
804.67	0.384
804.86	0.220
805.04	0.661
805.23	0.417
805.41	0.200
805.59	0.259
805.78	0.000
805.96	0.149
806.15	0.825
806.33	0.181
806.51	0.194
806.70	0.091
806.88	0.219
807.07	0.181
807.25	0.072
807.43	0.013
807.62	0.653
807.80	0.398
807.99	0.315
808.17	0.159
808.35	0.554
808.54	0.477
808.72	0.271
808.90	0.105
809.09	-0.145
809.27	0.702
809.46	0.419
809.64	0.013
809.82	0.597
810.01	0.000
810.19	0.315
810.37	0.431
810.56	0.575
810.74	0.371
810.92	0.473
811.11	0.662
811.29	0.335
811.48	0.110
811.66	0.203
811.84	0.778
812.03	0.116
812.21	0.048
812.39	0.309
812.58	-0.325
812.76	0.528
812.94	0.117
813.13	0.000
813.31	0.495
813.49	0.387
813.68	0.277
813.86	0.416
814.04	0.423
814.23	0.626
814.41	0.098
814.59	0.548
814.78	0.403
814.96	0.331
815.14	0.224
815.33	0.042
815.51	0.403
815.69	0.317
815.87	0.042
816.06	0.297
816.24	0.177
816.42	-0.036
816.61	0.238
816.79	0.542
816.97	0.386
817.16	0.564
817.34	-0.237
817.52	0.539
817.70	0.613
817.89	0.354
818.07	0.290
818.25	0.191
818.44	0.524
818.62	0.540
818.80	-0.044
818.98	0.560
819.17	0.716
819.35	0.119
819.53	0.192
819.72	0.525
819.90	0.467
820.08	0.216
820.26	-0.090
820.45	0.618
820.63	0.495
820.81	0.526
820.99	0.246
821.18	0.618
821.36	0.693
821.54	0.737
821.73	0.605
821.91	0.295
822.09	0.493
822.27	0.715
822.46	0.778
822.64	0.329
822.82	0.559
823.00	0.586
823.19	0.621
823.37	1.007
823.55	0.428
823.73	0.633
823.91	0.348
824.10	0.549
824.28	0.707
824.46	0.732
824.64	0.412
824.83	0.355
825.01	0.295
825.19	0.908
825.37	0.519
825.56	0.573
825.74	1.263
825.92	0.605
826.10	0.302
826.28	0.884
826.47	0.949
826.65	0.543
826.83	0.964
827.01	0.773
827.19	0.971
827.38	0.968
827.56	0.808
827.74	0.647
827.92	1.164
828.10	1.109
828.29	0.815
828.47	0.465
828.65	0.431
828.83	1.142
829.01	0.660
829.20	0.138
829.38	0.796
829.56	1.434
829.74	0.618
829.92	0.874
830.10	1.065
830.29	1.136
830.47	1.180
830.65	0.242
830.83	0.875
831.01	0.798
831.20	0.779
831.38	1.010
831.56	1.318
831.74	0.848
831.92	1.117
832.10	0.511
832.29	1.118
832.47	1.422
832.65	0.566
832.83	0.568
833.01	0.963
833.19	0.599
833.37	0.950
833.56	1.155
833.74	1.037
833.92	0.899
834.10	0.827
834.28	0.026
834.46	1.623
834.64	0.724
834.83	0.541
835.01	0.938
835.19	1.001
835.37	0.682
835.55	0.175
835.73	0.924
835.91	1.354
836.09	0.728
836.28	0.691
836.46	0.466
836.64	1.356
836.82	0.810
837.00	0.694
837.18	0.909
837.36	0.731
837.54	0.828
837.72	0.932
837.91	0.886
838.09	0.715
838.27	0.700
838.45	0.587
838.63	0.193
838.81	0.944
838.99	0.411
839.17	0.347
839.35	0.529
839.53	0.731
839.72	0.565
839.90	0.621
840.08	0.539
840.26	0.638
840.44	0.959
840.62	0.543
840.80	0.555
840.98	0.543
841.16	0.408
841.34	1.157
841.52	0.578
841.70	0.516
841.89	-0.037
842.07	1.204
842.25	0.791
842.43	0.318
842.61	0.788
842.79	0.903
842.97	0.351
843.15	0.691
843.33	0.532
843.51	0.712
843.69	0.830
843.87	-0.111
844.05	1.026
844.23	0.738
844.41	0.572
844.59	0.427
844.77	0.649
844.95	0.895
845.13	0.056
845.31	0.719
845.50	0.972
845.68	0.586
845.86	0.019
846.04	1.095
846.22	0.631
846.40	0.048
846.58	0.498
846.76	0.756
846.94	0.746
847.12	0.262
847.30	0.757
847.48	0.775
847.66	0.711
847.84	0.764
848.02	0.765
848.20	0.980
848.38	0.460
848.56	0.316
848.74	0.019
848.92	0.826
849.10	0.637
849.28	1.206
849.46	1.203
849.64	0.945
849.82	1.053
850.00	0.482
850.18	0.772
850.36	0.318
850.54	0.892
850.72	0.466
850.90	0.730
851.08	0.492
851.26	0.458
851.44	0.814
851.62	0.411
851.80	0.774
851.98	1.115
852.16	0.459
852.34	0.612
852.52	0.672
852.70	0.813
852.87	0.685
853.05	0.470
853.23	0.452
853.41	0.979
853.59	1.067
853.77	0.267
853.95	1.263
854.13	0.323
854.31	0.671
854.49	1.003
854.67	0.740
854.85	1.066
855.03	0.868
855.21	0.860
855.39	1.027
855.57	1.036
855.75	0.333
855.93	0.490
856.11	0.419
856.28	1.434
856.46	0.359
856.64	1.126
856.82	0.950
857.00	0.767
857.18	0.684
857.36	1.083
857.54	0.156
857.72	0.901
857.90	0.811
858.08	0.500
858.26	1.440
858.44	0.719
858.61	0.261
858.79	0.735
858.97	0.793
859.15	0.870
859.33	0.955
859.51	0.467
859.69	1.249
859.87	0.671
860.05	0.752
860.23	0.601
860.40	1.223
860.58	0.094
860.76	1.234
860.94	1.132
861.12	0.835
861.30	0.265
861.48	0.585
861.66	1.505
861.84	0.086
862.01	0.817
862.19	1.061
862.37	0.727
862.55	1.029
862.73	0.514
862.91	0.862
863.09	0.634
863.27	0.762
863.44	0.568
863.62	0.596
863.80	0.548
863.98	0.222
864.16	1.314
864.34	0.877
864.52	1.138
864.69	0.803
864.87	0.827
865.05	1.043
865.23	1.077
865.41	0.778
865.59	0.798
865.76	1.150
865.94	0.833
866.12	0.654
866.30	1.386
866.48	0.978
866.66	0.644
866.83	1.105
867.01	0.789
867.19	0.841
867.37	0.471
867.55	0.866
867.73	0.400
867.90	0.880
868.08	1.099
868.26	0.914
868.44	0.668
868.62	0.842
868.79	1.618
868.97	1.425
869.15	0.721
869.33	0.922
869.51	0.851
869.69	1.070
869.86	0.374
870.04	0.515
870.22	0.844
870.40	1.602
870.57	1.087
870.75	1.207
870.93	0.775
871.11	1.629
871.29	0.916
871.46	0.459
871.64	-0.059
871.82	1.935
872.00	0.731
872.18	1.092
872.35	1.422
872.53	1.368
872.71	0.596
872.89	0.923
873.06	0.406
873.24	1.357
873.42	0.931
873.60	0.889
873.77	-0.179
873.95	0.500
874.13	1.224
874.31	0.889
874.49	1.020
874.66	0.795
874.84	0.083
875.02	0.985
875.20	0.168
875.37	0.611
875.55	1.552
875.73	0.231
875.91	1.065
876.08	0.710
876.26	0.976
876.44	0.728
876.61	0.885
876.79	1.285
876.97	1.566
877.15	0.979
877.32	0.673
877.50	1.171
877.68	1.389
877.86	0.948
878.03	1.288
878.21	1.110
878.39	0.441
878.56	0.955
878.74	0.983
878.92	0.357
879.10	1.026
879.27	0.464
879.45	1.125
879.63	0.969
879.80	0.822
879.98	0.928
880.16	0.737
880.34	0.893
880.51	1.527
880.69	1.140
880.87	0.819
881.04	1.299
881.22	0.988
881.40	1.133
881.57	1.060
881.75	0.860
881.93	1.609
882.10	0.283
882.28	1.409
882.46	1.185
882.63	1.302
882.81	1.007
882.99	0.917
883.16	1.465
883.34	1.489
883.52	1.724
883.69	1.522
883.87	1.728
884.05	1.686
884.22	1.467
884.40	1.859
884.58	1.522
884.75	0.905
884.93	3.219
885.11	2.333
885.28	2.581
885.46	3.216
885.64	2.203
885.81	3.241
885.99	3.820
886.17	4.037
886.34	3.695
886.52	4.854
886.70	3.595
886.87	4.708
887.05	4.543
887.22	4.454
887.40	4.853
887.58	4.986
887.75	4.565
887.93	5.978
888.11	4.990
888.28	5.306
888.46	4.928
888.63	6.161
888.81	5.647
888.99	6.422
889.16	6.754
889.34	5.878
889.51	7.060
889.69	6.608
889.87	7.479
890.04	6.567
890.22	6.531
890.39	6.962
890.57	7.582
890.75	7.281
890.92	8.040
891.10	8.416
891.27	7.788
891.45	8.761
891.63	7.596
891.80	8.527
891.98	8.790
892.15	8.104
892.33	8.816
892.51	8.910
892.68	7.718
892.86	8.057
893.03	8.886
893.21	8.714
893.38	8.082
893.56	8.661
893.74	9.319
893.91	8.881
894.09	7.807
894.26	8.669
894.44	8.883
894.61	8.979
894.79	8.929
894.96	9.339
895.14	9.225
895.32	9.112
895.49	9.424
895.67	9.128
895.84	10.061
896.02	11.652
896.19	10.543
896.37	11.399
896.54	12.676
896.72	12.489
896.89	12.753
897.07	13.336
897.25	13.654
897.42	13.535
897.60	13.288
897.77	13.942
897.95	13.574
898.12	14.850
898.30	16.252
898.47	14.193
898.65	15.601
898.82	16.572
899.00	15.716
899.17	15.992
899.35	17.152
899.52	15.963
899.70	17.312
899.87	17.285
900.05	17.896
900.22	17.165
900.40	18.656
900.57	18.284
900.75	18.425
900.92	19.574
901.10	17.636
901.27	18.430
901.45	19.032
901.62	18.852
901.80	18.843
901.97	19.609
902.15	19.519
902.32	19.861
902.50	18.365
902.67	18.948
902.85	19.080
903.02	20.550
903.20	19.406
903.37	20.303
903.54	19.181
903.72	19.731
903.89	19.080
904.07	18.964
904.24	19.414
904.42	18.679
904.59	18.214
904.77	18.629
904.94	17.864
905.12	17.843
905.29	17.677
905.47	17.609
905.64	16.698
905.81	17.812
905.99	17.338
906.16	17.804
906.34	16.626
906.51	18.028
906.69	18.068
906.86	17.567
907.03	17.559
907.21	17.412
907.38	17.629
907.56	17.418
907.73	17.859
907.91	18.064
908.08	17.988
908.25	18.264
908.43	18.636
908.60	19.075
908.78	19.576
908.95	18.455
909.13	19.541
909.30	18.428
909.47	18.875
909.65	19.483
909.82	19.900
910.00	19.463
910.17	19.817
910.34	20.408
910.52	19.088
910.69	20.796
910.87	21.836
911.04	21.910
911.21	21.553
911.39	21.873
911.56	22.622
911.73	22.367
911.91	21.227
912.08	23.717
912.26	23.349
912.43	22.438
912.60	24.291
912.78	23.723
912.95	23.477
913.13	24.117
913.30	24.117
913.47	25.520
913.65	24.772
913.82	25.902
913.99	25.735
914.17	26.519
914.34	26.845
914.51	27.080
914.69	29.334
914.86	28.172
915.03	27.299
915.21	28.415
915.38	28.352
915.56	31.135
915.73	30.116
915.90	30.007
916.08	31.583
916.25	31.887
916.42	30.701
916.60	31.732
916.77	31.929
916.94	32.957
917.12	34.225
917.29	35.341
917.46	35.746
917.64	35.516
917.81	36.051
917.98	37.894
918.16	37.234
918.33	41.562
918.50	40.735
918.67	39.487
918.85	41.135
919.02	39.705
919.19	41.861
919.37	44.078
919.54	43.385
919.71	45.489
919.89	44.067
920.06	45.795
920.23	48.346
920.41	46.567
920.58	49.197
920.75	47.714
920.92	50.763
921.10	48.290
921.27	50.215
921.44	50.458
921.62	49.391
921.79	52.878
921.96	52.829
922.13	53.361
922.31	53.463
922.48	54.735
922.65	52.826
922.82	55.370
923.00	55.148
923.17	51.684
923.34	54.184
923.52	53.493
923.69	54.293
923.86	55.064
924.03	54.226
924.21	54.318
924.38	52.880
924.55	54.662
924.72	53.842
924.90	56.728
925.07	54.106
925.24	56.131
925.41	55.238
925.59	57.507
925.76	57.518
925.93	55.970
926.10	55.360
926.28	54.352
926.45	57.776
926.62	55.354
926.79	55.481
926.96	56.362
927.14	56.673
927.31	57.660
927.48	55.742
927.65	54.537
927.83	57.416
928.00	53.481
928.17	54.817
928.34	54.254
928.51	54.570
928.69	52.412
928.86	53.990
929.03	53.740
929.20	55.621
929.37	53.096
929.55	52.495
929.72	52.309
929.89	53.031
930.06	53.659
930.23	52.260
930.41	50.874
930.58	51.897
930.75	52.098
930.92	50.804
931.09	50.085
931.27	49.055
931.44	48.199
931.61	49.570
931.78	49.691
931.95	48.211
932.12	48.645
932.30	48.973
932.47	46.949
932.64	47.684
932.81	48.929
932.98	47.412
933.16	47.664
933.33	46.928
933.50	48.331
933.67	46.872
933.84	47.011
934.01	45.644
934.18	46.207
934.36	45.778
934.53	45.509
934.70	43.332
934.87	43.233
935.04	42.660
935.21	41.236
935.38	42.570
935.56	40.536
935.73	40.859
935.90	39.867
936.07	38.324
936.24	39.033
936.41	37.514
936.58	37.724
936.76	34.694
936.93	36.355
937.10	33.567
937.27	34.644
937.44	33.349
937.61	34.313
937.78	32.654
937.95	32.922
938.13	32.133
938.30	31.871
938.47	31.508
938.64	31.256
938.81	30.721
938.98	30.361
939.15	30.549
939.32	30.254
939.49	30.507
939.66	29.487
939.84	29.754
940.01	27.647
940.18	29.584
940.35	27.812
940.52	29.496
940.69	29.760
940.86	29.985
941.03	28.575
941.20	29.809
941.37	28.095
941.54	28.047
941.71	28.931
941.89	30.495
942.06	30.040
942.23	30.753
942.40	30.565
942.57	29.620
942.74	30.446
942.91	30.997
943.08	30.035
943.25	28.294
943.42	30.178
943.59	29.828
943.76	29.341
943.93	30.465
944.10	29.202
944.27	29.497
944.44	29.069
944.61	28.125
944.79	28.013
944.96	29.285
945.13	30.622
945.30	27.528
945.47	25.744
945.64	26.646
945.81	28.567
945.98	27.824
946.15	28.062
946.32	26.046
946.49	27.565
946.66	27.612
946.83	27.649
947.00	26.352
947.17	26.779
947.34	27.157
947.51	25.280
947.68	26.319
947.85	26.752
948.02	25.099
948.19	22.580
948.36	23.936
948.53	23.438
948.70	24.234
948.87	21.650
949.04	23.199
949.21	21.146
949.38	22.765
949.55	22.508
949.72	19.567
949.89	21.904
950.06	20.018
950.23	21.078
950.40	19.232
950.57	19.586
950.74	20.492
950.91	19.048
951.08	18.465
951.25	17.829
951.42	19.325
951.59	16.851
951.76	16.043
951.93	16.898
952.10	16.097
952.27	15.858
952.44	15.883
952.61	17.327
952.77	15.624
952.94	17.713
953.11	16.716
953.28	16.468
953.45	14.734
953.62	15.583
953.79	11.592
953.96	15.966
954.13	15.260
954.30	14.065
954.47	14.653
954.64	13.181
954.81	15.905
954.98	12.525
955.15	13.322
955.32	16.179
955.49	10.720
955.65	13.596
955.82	12.746
955.99	14.276
956.16	11.966
956.33	12.894
956.50	11.671
956.67	12.548
956.84	12.724
957.01	11.836
957.18	9.965
957.35	11.099
957.52	13.263
957.68	13.597
957.85	13.764
958.02	14.111
958.19	13.702
958.36	12.669
958.53	14.753
958.70	13.969
958.87	14.929
959.04	13.604
959.21	13.042
959.37	13.977
959.54	15.766
959.71	14.375
959.88	15.651
960.05	15.453
960.22	15.692
960.39	15.982
960.56	16.747
960.72	16.071
960.89	17.350
961.06	16.888
961.23	15.585
961.40	18.406
961.57	15.196
961.74	15.158
961.90	14.270
962.07	16.217
962.24	15.892
962.41	15.624
962.58	17.303
962.75	14.135
962.92	13.640
963.08	16.078
963.25	15.702
963.42	16.474
963.59	16.422
963.76	14.880
963.93	16.252
964.10	17.859
964.26	17.118
964.43	14.912
964.60	15.578
964.77	15.277
964.94	12.066
965.10	16.626
965.27	13.331
965.44	12.829
965.61	13.708
965.78	12.986
965.95	14.661
966.11	13.336
966.28	14.507
966.45	11.902
966.62	14.562
966.79	13.569
966.95	12.791
967.12	13.691
967.29	14.614
967.46	11.542
967.63	12.107
967.79	11.191
967.96	10.751
968.13	11.444
968.30	10.649
968.47	11.282
968.63	13.003
968.80	11.253
968.97	9.647
969.14	11.116
969.31	11.301
969.47	10.208
969.64	11.006
969.81	7.768
969.98	9.168
970.14	7.820
970.31	6.369
970.48	8.013
970.65	10.776
970.81	5.838
970.98	7.384
971.15	5.865
971.32	7.366
971.48	5.717
971.65	8.345
971.82	7.544
971.99	6.176
972.15	5.640
972.32	4.022
972.49	2.512
972.66	6.960
972.82	6.748
972.99	7.877
973.16	8.321
973.33	6.061
973.49	5.301
973.66	4.628
973.83	5.056
974.00	10.106
974.16	4.422
974.33	6.599
974.50	4.559
974.67	5.608
974.83	5.758
975.00	7.039
975.17	0.485
975.33	4.945
975.50	5.096
975.67	6.296
975.84	3.710
976.00	5.960
976.17	2.530
976.34	3.097
976.50	1.559
976.67	2.489
976.84	1.939
977.00	4.226
977.17	3.583
977.34	5.528
977.50	3.236
977.67	3.041
977.84	4.126
978.01	2.704
978.17	6.199
978.34	7.366
978.51	3.588
978.67	3.274
978.84	6.868
979.01	3.119
979.17	1.700
979.34	2.373
979.51	4.082
979.67	6.323
979.84	8.914
980.01	4.353
980.17	2.478
980.34	2.897
980.51	4.345
980.67	1.626
980.84	3.073
981.01	5.868
981.17	6.638
981.34	8.391
981.50	5.319
981.67	3.594
981.84	3.790
982.00	4.801
982.17	3.782
982.34	5.023
982.50	1.277
982.67	5.860
982.84	5.890
983.00	1.429
983.17	3.190
983.33	6.774
983.50	6.214
983.67	3.024
983.83	-0.264
984.00	6.057
984.17	6.815
984.33	3.574
984.50	8.776
984.66	4.597
984.83	6.216
985.00	5.748
985.16	6.709
985.33	3.644
985.49	7.495
985.66	5.274
985.83	4.164
985.99	6.535
986.16	4.880
986.32	0.663
986.49	8.262
986.66	7.574
986.82	4.494
986.99	6.192
987.15	4.278
987.32	1.812
987.49	5.831
987.65	1.990
987.82	5.616
987.98	8.890
988.15	10.719
988.31	5.294
988.48	7.372
988.65	7.255
988.81	7.608
988.98	8.074
989.14	-0.077
989.31	7.301
989.47	6.775
989.64	10.190
989.80	9.474
989.97	7.170
990.14	10.040
990.30	5.345
990.47	8.506
990.63	12.540
990.80	10.420
990.96	8.504
991.13	7.692
991.29	10.572
991.46	10.622
991.62	12.797
991.79	10.327
991.95	12.292
992.12	11.867
992.29	15.533
992.45	10.705
992.62	12.012
992.78	15.334
992.95	10.671
993.11	14.298
993.28	14.083
993.44	10.485
993.61	7.265
993.77	11.056
993.94	15.000
994.10	14.298
994.27	11.796
994.43	15.767
994.60	9.621
994.76	11.501
994.93	8.394
995.09	17.828
995.26	15.978
995.42	20.968
995.59	16.940
995.75	17.091
995.92	21.034
996.08	18.609
996.25	18.087
996.41	12.569
996.58	19.982
996.74	16.382
996.91	17.641
997.07	19.131
997.23	21.307
997.40	20.575
997.56	15.502
997.73	21.134
997.89	17.980
998.06	15.548
998.22	14.009
998.39	18.282
998.55	15.475
998.72	20.120
998.88	22.391
999.05	17.181
999.21	19.960
999.37	23.207
999.54	26.292
999.70	16.509
999.87	19.641
1000.03	27.927
1000.20	20.296
1000.36	24.080
1000.52	28.507
1000.69	24.072
1000.85	24.258
1001.02	29.068
1001.18	27.343
1001.35	25.607
1001.51	27.518
1001.67	34.767
1001.84	27.615
1002.00	28.555
1002.17	29.718
1002.33	28.709
1002.50	26.285
1002.66	31.090
1002.82	29.189
1002.99	28.702
1003.15	31.731
1003.32	31.495
1003.48	32.575
1003.64	35.587
1003.81	36.354
1003.97	42.840
1004.14	32.124
1004.30	31.579
1004.46	35.912
1004.63	39.160
1004.79	32.460
1004.95	36.488
1005.12	35.346
1005.28	40.118
1005.45	43.804
1005.61	26.082
1005.77	31.150
1005.94	37.617
1006.10	35.894
1006.26	39.583
1006.43	40.026
1006.59	40.798
1006.76	34.718
1006.92	44.941
1007.08	38.604
1007.25	39.822
1007.41	43.240
1007.57	35.926
1007.74	47.933
1007.90	39.318
1008.06	34.621
1008.23	40.209
1008.39	56.581
1008.55	43.876
1008.72	36.947
1008.88	47.598
1009.04	41.203
1009.21	38.298
1009.37	32.910
1009.53	37.422
1009.70	35.059
1009.86	44.429
1010.02	38.015
1010.19	39.461
1010.35	48.296
1010.51	48.880
1010.68	44.749
1010.84	44.510
1011.00	39.690
1011.17	43.051
1011.33	37.690
1011.49	40.317
1011.66	48.534
1011.82	52.018
1011.98	33.651
1012.14	45.798
1012.31	47.568
1012.47	45.120
1012.63	48.293
1012.80	40.102
1012.96	43.144
1013.12	44.190
1013.29	45.070
1013.45	39.850
1013.61	40.962
1013.77	49.278
1013.94	43.131
1014.10	51.489
1014.26	43.623
1014.43	43.667
1014.59	52.446
1014.75	44.990
1014.91	55.172
1015.08	53.244
1015.24	42.410
1015.40	33.730
1015.56	46.642
1015.73	54.850
1015.89	50.919
1016.05	40.993
1016.21	43.486
1016.38	51.825
1016.54	56.604
1016.70	43.611
1016.86	62.095
1017.03	57.642
1017.19	47.482
1017.35	50.331
1017.51	47.100
1017.68	39.712
1017.84	33.537
1018.00	49.518
1018.16	51.894
1018.33	52.463
1018.49	48.536
1018.65	62.247
1018.81	71.464
1018.97	49.400
1019.14	46.624
1019.30	55.847
1019.46	65.972
1019.62	68.943
1019.79	57.527
1019.95	54.382
1020.11	64.598
1020.27	58.511
1020.43	59.101
1020.60	67.925
1020.76	69.978
1020.92	75.061
1021.08	59.101
1021.24	51.852
1021.41	72.515
1021.57	61.634
1021.73	67.157
1021.89	67.785
1022.05	78.426
1022.21	78.628
1022.38	58.295
1022.54	60.934
1022.70	77.067
1022.86	67.053
1023.02	74.020
1023.19	89.683
1023.35	85.979
1023.51	66.190
1023.67	74.346
1023.83	78.552
1023.99	98.780
1024.16	94.720
1024.32	70.270
1024.48	88.889
1024.64	66.667
1024.80	88.920
1024.96	88.740
1025.12	78.492
1025.29	75.718
1025.45	90.654
1025.61	79.651
1025.77	74.271
1025.93	72.774
1026.09	86.517
1026.26	89.968
1026.42	90.349
1026.58	95.779
1026.74	107.011
1026.90	74.545
1027.06	86.943
1027.22	91.743
1027.38	114.375
1027.55	114.523
1027.71	87.179
1027.87	100.275
1028.03	96.091
1028.19	100.735
1028.35	103.017
1028.51	93.431
1028.67	97.193
1028.83	85.338
1029.00	91.011
1029.16	99.267
1029.32	96.708
1029.48	106.618
1029.64	92.715
1029.80	93.333
1029.96	110.224
1030.12	98.980
1030.28	103.378
1030.44	96.000
1030.61	123.828
1030.77	96.825
1030.93	92.395
1031.09	98.319
1031.25	132.558
1031.41	114.423
1031.57	91.209
1031.73	111.947
1031.89	111.837
1032.05	66.667
1032.21	123.767
1032.37	111.523
1032.53	114.545
1032.69	97.531
1032.86	131.667
1033.02	119.903
1033.18	134.156
1033.34	107.292
1033.50	125.641
1033.66	107.843
1033.82	115.152
1033.98	102.553
1034.14	113.095
1034.30	103.982
1034.46	100.000
1034.62	114.620
1034.78	96.861
1034.94	81.323
1035.10	131.500
1035.26	95.259
1035.42	132.941
1035.58	114.024
1035.74	115.766
1035.90	101.020
1036.06	94.146
1036.22	102.885
1036.38	122.535
1036.54	88.785
1036.70	85.165
1036.86	116.477
1037.02	95.862
1037.18	80.645
1037.34	95.714
1037.50	132.258
1037.66	161.538
1037.82	75.845
1037.98	74.112
1038.14	138.596
1038.30	170.192
1038.46	137.838
1038.62	81.218
1038.78	111.719
1038.94	121.875
1039.10	78.836
1039.26	86.826
1039.42	150.926
1039.58	68.617
1039.74	110.811
1039.90	91.667
1040.06	178.431
>>>>>End Processed Spectral Data<<<<<
