SpectraSuite Data File
++++++++++++++++++++++++++++++++++++
Date: Mon Mar 27 20:01:59 EEST 2017
User: TheoProf
Dark Spectrum Present: Yes
Reference Spectrum Present: Yes
Number of Sampled Component Spectra: 1
Spectrometers: USB4C02475
Integration Time (usec): 426341 (USB4C02475)
Spectra Averaged: 1 (USB4C02475)
Boxcar Smoothing: 0 (USB4C02475)
Correct for Electrical Dark: No (USB4C02475)
Strobe/Lamp Enabled: No (USB4C02475)
Correct for Detector Non-linearity: No (USB4C02475)
Correct for Stray Light: No (USB4C02475)
Number of Pixels in Processed Spectrum: 3648
>>>>>Begin Processed Spectral Data<<<<<
344.91	88.235
345.13	88.235
345.35	88.235
345.57	0.000
345.79	33.333
346.00	-736.842
346.22	-236.842
346.44	833.333
346.66	975.000
346.87	176.667
347.09	0.000
347.31	-876.923
347.53	-289.286
347.74	-42.187
347.96	-134.722
348.18	320.000
348.40	1800.000
348.61	-336.000
348.83	-518.750
349.05	-409.524
349.27	12.857
349.48	-891.667
349.70	561.905
349.92	1140.000
350.14	-1257.143
350.35	1875.000
350.57	359.091
350.79	266.667
351.01	263.265
351.22	286.486
351.44	-914.286
351.66	114.286
351.87	337.838
352.09	202.985
352.31	90.541
352.53	460.000
352.74	157.971
352.96	94.737
353.18	243.750
353.40	72.340
353.61	452.174
353.83	176.056
354.05	850.000
354.26	-4666.667
354.48	1550.000
354.70	-640.000
354.92	146.575
355.13	342.857
355.35	-1290.909
355.57	-266.667
355.78	96.053
356.00	850.000
356.22	258.065
356.44	2250.000
356.65	1400.000
356.87	1460.000
357.09	785.000
357.30	339.130
357.52	196.429
357.74	300.000
357.95	112.500
358.17	275.000
358.39	-281.250
358.60	2450.000
358.82	227.778
359.04	279.310
359.26	151.064
359.47	422.222
359.69	332.143
359.91	380.645
360.12	352.632
360.34	-527.273
360.56	614.286
360.77	-1340.000
360.99	-618.182
361.21	251.111
361.42	-2300.000
361.64	-900.000
361.86	417.857
362.07	329.167
362.29	273.333
362.51	205.714
362.72	500.000
362.94	73.214
363.16	353.333
363.37	285.000
363.59	214.286
363.81	324.324
364.02	712.500
364.24	9900.000
364.46	255.556
364.67	125.926
364.89	531.818
365.11	0.000
365.32	263.333
365.54	-71.875
365.76	-257.143
365.97	434.783
366.19	250.000
366.41	94.231
366.62	121.818
366.84	82.500
367.05	366.667
367.27	2133.333
367.49	64.286
367.70	232.609
367.92	180.488
368.14	186.154
368.35	219.231
368.57	171.084
368.79	120.879
369.00	136.842
369.22	198.000
369.43	110.989
369.65	1342.857
369.87	581.818
370.08	238.889
370.30	304.348
370.51	226.923
370.73	122.078
370.95	436.364
371.16	630.000
371.38	380.000
371.60	762.500
371.81	411.538
372.03	2700.000
372.24	180.000
372.46	170.370
372.68	109.859
372.89	148.000
373.11	147.525
373.32	-71.795
373.54	812.500
373.76	210.606
373.97	87.500
374.19	192.405
374.40	397.059
374.62	139.394
374.84	-569.231
375.05	181.429
375.27	452.941
375.48	247.619
375.70	277.419
375.92	139.655
376.13	-3033.333
376.35	120.238
376.56	183.673
376.78	79.000
376.99	345.455
377.21	134.884
377.43	175.806
377.64	245.000
377.86	130.000
378.07	112.698
378.29	71.429
378.51	135.294
378.72	384.615
378.94	123.077
379.15	50.526
379.37	121.429
379.58	144.615
379.80	116.393
380.01	236.538
380.23	280.000
380.45	242.222
380.66	386.667
380.88	113.235
381.09	140.426
381.31	123.077
381.52	90.000
381.74	90.789
381.95	114.286
382.17	187.500
382.39	109.722
382.60	150.000
382.82	116.364
383.03	121.519
383.25	102.632
383.46	70.909
383.68	104.040
383.89	114.414
384.11	152.273
384.32	61.290
384.54	-190.476
384.76	129.032
384.97	58.065
385.19	21.429
385.40	160.274
385.62	145.714
385.83	102.353
386.05	115.517
386.26	79.339
386.48	47.253
386.69	104.000
386.91	75.532
387.12	88.889
387.34	79.279
387.55	27.778
387.77	35.659
387.98	69.504
388.20	55.140
388.41	85.714
388.63	71.970
388.84	52.809
389.06	89.286
389.27	64.925
389.49	152.941
389.70	82.443
389.92	42.657
390.13	73.684
390.35	54.198
390.56	92.969
390.78	86.275
390.99	62.887
391.21	27.941
391.42	81.955
391.64	85.315
391.85	39.623
392.07	31.624
392.28	34.177
392.50	51.042
392.71	44.882
392.93	25.758
393.14	42.636
393.36	124.590
393.57	31.481
393.79	79.878
394.00	72.174
394.22	71.552
394.43	54.737
394.65	43.889
394.86	11.047
395.08	61.475
395.29	29.487
395.50	37.629
395.72	40.491
395.93	78.710
396.15	32.716
396.36	33.987
396.58	12.329
396.79	41.104
397.01	27.778
397.22	44.330
397.44	71.498
397.65	40.385
397.87	36.612
398.08	24.183
398.29	47.967
398.51	57.711
398.72	3.061
398.94	36.078
399.15	16.580
399.37	58.960
399.58	28.821
399.80	2.778
400.01	60.000
400.22	34.286
400.44	14.847
400.65	-0.694
400.87	32.468
401.08	35.859
401.30	43.981
401.51	26.108
401.72	45.148
401.94	50.833
402.15	29.110
402.37	14.444
402.58	21.786
402.80	15.079
403.01	29.384
403.22	39.313
403.44	25.352
403.65	24.762
403.87	11.417
404.08	31.186
404.30	-1.255
404.51	32.012
404.72	14.019
404.94	29.885
405.15	20.866
405.37	15.987
405.58	33.439
405.79	16.498
406.01	19.444
406.22	8.202
406.44	12.457
406.65	16.438
406.86	8.647
407.08	25.484
407.29	28.495
407.51	10.615
407.72	16.990
407.93	19.399
408.15	17.460
408.36	2.314
408.58	13.333
408.79	18.209
409.00	15.263
409.22	20.490
409.43	18.605
409.64	16.905
409.86	8.373
410.07	11.868
410.29	10.421
410.50	8.145
410.71	8.511
410.93	19.466
411.14	15.678
411.35	11.373
411.57	8.925
411.78	16.700
412.00	15.959
412.21	21.713
412.42	5.396
412.64	8.203
412.85	13.805
413.06	7.270
413.28	7.372
413.49	6.916
413.70	6.486
413.92	15.702
414.13	1.832
414.34	24.463
414.56	9.165
414.77	4.140
414.98	6.829
415.20	12.235
415.41	11.022
415.63	2.450
415.84	17.949
416.05	4.072
416.27	7.396
416.48	8.210
416.69	4.874
416.91	14.872
417.12	7.132
417.33	7.270
417.55	3.610
417.76	5.652
417.97	3.545
418.19	10.264
418.40	-3.333
418.61	7.723
418.83	14.180
419.04	11.235
419.25	2.676
419.46	10.307
419.68	15.294
419.89	10.204
420.10	11.223
420.32	14.356
420.53	15.306
420.74	17.271
420.96	17.047
421.17	18.778
421.38	21.622
421.60	18.296
421.81	16.992
422.02	25.112
422.23	24.755
422.45	28.774
422.66	28.780
422.87	28.000
423.09	35.895
423.30	28.268
423.51	33.401
423.73	30.481
423.94	40.355
424.15	35.826
424.36	40.020
424.58	44.487
424.79	42.365
425.00	48.390
425.22	45.888
425.43	44.423
425.64	52.386
425.85	46.053
426.07	51.235
426.28	59.224
426.49	57.935
426.71	57.116
426.92	64.292
427.13	60.734
427.34	66.638
427.56	62.102
427.77	69.469
427.98	69.694
428.19	64.330
428.41	70.971
428.62	70.160
428.83	70.352
429.04	69.572
429.26	68.790
429.47	74.799
429.68	71.987
429.89	73.716
430.11	77.409
430.32	71.104
430.53	79.102
430.74	80.216
430.96	77.496
431.17	77.221
431.38	77.484
431.59	80.942
431.81	81.446
432.02	78.767
432.23	76.575
432.44	81.639
432.66	78.670
432.87	81.831
433.08	78.530
433.29	83.488
433.51	82.796
433.72	84.927
433.93	77.997
434.14	81.687
434.35	80.103
434.57	82.946
434.78	84.502
434.99	82.900
435.20	85.906
435.42	80.194
435.63	85.321
435.84	88.327
436.05	87.778
436.26	81.806
436.48	84.634
436.69	80.811
436.90	83.562
437.11	82.704
437.32	80.089
437.54	85.349
437.75	88.663
437.96	86.436
438.17	80.928
438.38	84.226
438.60	81.568
438.81	78.783
439.02	79.882
439.23	80.114
439.44	81.751
439.66	82.114
439.87	83.513
440.08	72.798
440.29	78.612
440.50	79.450
440.72	74.851
440.93	76.108
441.14	75.097
441.35	82.481
441.56	76.719
441.77	78.675
441.99	74.948
442.20	77.979
442.41	75.211
442.62	71.776
442.83	77.977
443.04	77.187
443.26	77.575
443.47	79.073
443.68	80.458
443.89	76.712
444.10	75.584
444.31	75.862
444.53	73.437
444.74	73.906
444.95	75.326
445.16	75.533
445.37	76.346
445.58	74.611
445.80	76.458
446.01	76.258
446.22	70.501
446.43	71.429
446.64	71.665
446.85	69.299
447.06	74.684
447.28	69.882
447.49	72.645
447.70	71.371
447.91	71.429
448.12	71.837
448.33	68.180
448.54	67.868
448.76	70.915
448.97	66.937
449.18	66.749
449.39	64.069
449.60	65.772
449.81	61.474
450.02	61.748
450.23	63.869
450.45	56.747
450.66	58.442
450.87	56.857
451.08	53.881
451.29	53.706
451.50	51.254
451.71	48.699
451.92	46.564
452.13	44.465
452.35	41.609
452.56	42.245
452.77	38.414
452.98	42.301
453.19	36.147
453.40	33.151
453.61	33.546
453.82	30.566
454.03	26.178
454.25	24.874
454.46	23.592
454.67	23.893
454.88	17.332
455.09	17.726
455.30	15.248
455.51	14.074
455.72	11.572
455.93	13.104
456.14	14.832
456.35	8.809
456.56	9.419
456.78	9.176
456.99	11.453
457.20	6.209
457.41	9.827
457.62	3.596
457.83	5.849
458.04	4.979
458.25	4.252
458.46	3.466
458.67	4.949
458.88	3.071
459.09	3.634
459.30	2.999
459.51	2.877
459.73	2.902
459.94	3.378
460.15	3.828
460.36	4.223
460.57	4.011
460.78	0.907
460.99	2.706
461.20	1.709
461.41	3.822
461.62	0.212
461.83	3.888
462.04	2.415
462.25	0.313
462.46	3.915
462.67	3.029
462.88	4.496
463.09	3.438
463.30	3.381
463.51	1.764
463.72	3.657
463.93	2.087
464.15	0.729
464.36	2.416
464.57	2.194
464.78	2.544
464.99	2.273
465.20	3.084
465.41	2.360
465.62	2.888
465.83	4.036
466.04	3.146
466.25	2.321
466.46	2.701
466.67	2.884
466.88	1.488
467.09	1.264
467.30	1.192
467.51	2.981
467.72	1.473
467.93	0.797
468.14	3.811
468.35	1.900
468.56	2.520
468.77	3.060
468.98	2.366
469.19	3.734
469.40	1.253
469.61	1.595
469.82	1.764
470.03	2.091
470.24	1.786
470.45	3.654
470.66	1.979
470.87	1.756
471.08	1.376
471.29	1.552
471.50	3.578
471.71	1.992
471.92	1.723
472.13	2.496
472.34	1.618
472.55	2.065
472.76	2.833
472.97	3.430
473.18	1.818
473.39	2.496
473.60	0.829
473.81	1.392
474.01	2.235
474.22	-0.274
474.43	2.343
474.64	1.620
474.85	1.397
475.06	2.510
475.27	0.835
475.48	1.303
475.69	0.840
475.90	1.435
476.11	1.462
476.32	2.825
476.53	1.330
476.74	1.880
476.95	1.662
477.16	2.438
477.37	1.649
477.58	3.019
477.79	1.992
478.00	0.596
478.21	3.030
478.41	1.415
478.62	1.129
478.83	3.189
479.04	1.710
479.25	1.809
479.46	1.606
479.67	2.205
479.88	1.753
480.09	2.119
480.30	1.373
480.51	1.996
480.72	2.582
480.93	1.431
481.14	1.910
481.34	1.613
481.55	1.377
481.76	1.461
481.97	2.491
482.18	2.418
482.39	2.000
482.60	1.262
482.81	1.622
483.02	1.892
483.23	1.820
483.44	1.005
483.65	0.685
483.85	1.493
484.06	1.666
484.27	1.470
484.48	1.021
484.69	1.722
484.90	1.244
485.11	0.871
485.32	1.223
485.53	1.462
485.73	1.170
485.94	0.963
486.15	1.748
486.36	1.792
486.57	1.399
486.78	1.498
486.99	1.965
487.20	1.878
487.41	1.709
487.61	2.094
487.82	1.502
488.03	1.149
488.24	1.391
488.45	0.713
488.66	1.606
488.87	1.777
489.08	1.622
489.28	2.119
489.49	0.530
489.70	1.179
489.91	1.484
490.12	0.897
490.33	1.768
490.54	0.868
490.74	1.716
490.95	1.312
491.16	1.361
491.37	1.708
491.58	1.408
491.79	1.598
492.00	1.936
492.20	2.004
492.41	3.371
492.62	2.318
492.83	1.764
493.04	3.640
493.25	3.824
493.45	3.862
493.66	4.501
493.87	4.124
494.08	4.958
494.29	5.549
494.50	5.242
494.70	7.117
494.91	8.434
495.12	8.101
495.33	9.722
495.54	11.052
495.75	11.647
495.95	12.436
496.16	13.587
496.37	14.696
496.58	16.059
496.79	17.849
496.99	19.161
497.20	20.298
497.41	21.942
497.62	22.625
497.83	24.018
498.04	24.515
498.24	25.409
498.45	28.161
498.66	29.593
498.87	30.925
499.08	32.782
499.28	33.357
499.49	34.274
499.70	36.927
499.91	38.787
500.12	40.194
500.32	40.898
500.53	42.352
500.74	44.439
500.95	47.021
501.15	47.320
501.36	50.416
501.57	51.814
501.78	52.838
501.99	54.075
502.19	55.574
502.40	57.251
502.61	59.249
502.82	60.288
503.02	61.476
503.23	63.117
503.44	63.999
503.65	64.932
503.86	67.374
504.06	65.226
504.27	66.940
504.48	66.362
504.69	67.664
504.89	69.871
505.10	69.418
505.31	69.611
505.52	69.642
505.72	71.596
505.93	70.602
506.14	71.282
506.35	71.308
506.55	71.946
506.76	75.175
506.97	76.020
507.18	75.646
507.38	77.849
507.59	77.859
507.80	77.002
508.01	78.092
508.21	79.624
508.42	80.207
508.63	81.255
508.84	80.836
509.04	81.018
509.25	81.860
509.46	82.096
509.67	84.295
509.87	83.617
510.08	84.555
510.29	82.561
510.49	83.747
510.70	82.522
510.91	82.701
511.12	83.187
511.32	84.607
511.53	85.386
511.74	85.474
511.94	85.494
512.15	84.762
512.36	85.564
512.57	82.160
512.77	85.576
512.98	84.087
513.19	84.179
513.39	84.427
513.60	82.829
513.81	82.079
514.01	83.284
514.22	82.737
514.43	83.186
514.64	81.534
514.84	82.605
515.05	79.881
515.26	81.091
515.46	80.534
515.67	80.354
515.88	79.085
516.08	78.949
516.29	77.316
516.50	76.984
516.70	74.968
516.91	74.216
517.12	75.045
517.32	72.993
517.53	73.857
517.74	73.340
517.95	72.038
518.15	73.539
518.36	73.129
518.57	73.127
518.77	71.697
518.98	70.990
519.19	70.806
519.39	70.938
519.60	69.851
519.80	70.497
520.01	70.431
520.22	70.475
520.42	69.054
520.63	68.746
520.84	65.554
521.04	65.015
521.25	63.135
521.46	62.307
521.66	60.312
521.87	57.374
522.08	56.820
522.28	54.741
522.49	51.957
522.70	50.931
522.90	48.711
523.11	46.653
523.31	44.450
523.52	41.743
523.73	40.264
523.93	37.828
524.14	35.509
524.35	33.887
524.55	31.801
524.76	29.539
524.97	27.821
525.17	24.963
525.38	23.341
525.58	22.178
525.79	20.546
526.00	18.925
526.20	17.099
526.41	15.405
526.61	14.819
526.82	12.865
527.03	12.188
527.23	10.587
527.44	9.636
527.64	8.157
527.85	7.698
528.06	6.718
528.26	6.017
528.47	4.765
528.68	3.925
528.88	3.527
529.09	3.006
529.29	2.686
529.50	2.073
529.70	1.986
529.91	1.754
530.12	1.093
530.32	1.665
530.53	1.503
530.73	0.960
530.94	0.903
531.15	1.205
531.35	1.347
531.56	0.894
531.76	1.087
531.97	0.816
532.17	0.723
532.38	1.254
532.59	0.732
532.79	1.020
533.00	0.943
533.20	0.621
533.41	0.806
533.61	0.817
533.82	0.763
534.03	0.364
534.23	0.666
534.44	0.398
534.64	0.680
534.85	0.771
535.05	0.649
535.26	0.724
535.46	0.819
535.67	0.853
535.88	0.950
536.08	0.732
536.29	0.722
536.49	0.849
536.70	0.641
536.90	1.040
537.11	0.883
537.31	0.266
537.52	0.817
537.72	0.863
537.93	0.991
538.13	0.663
538.34	0.605
538.55	0.831
538.75	0.815
538.96	0.523
539.16	0.728
539.37	1.181
539.57	0.463
539.78	0.613
539.98	0.690
540.19	0.577
540.39	1.145
540.60	0.578
540.80	0.644
541.01	0.782
541.21	0.962
541.42	0.586
541.62	0.662
541.83	0.857
542.03	0.747
542.24	0.625
542.44	0.743
542.65	0.566
542.85	0.788
543.06	0.732
543.26	0.583
543.47	0.500
543.67	0.568
543.88	0.775
544.08	0.435
544.29	1.005
544.49	0.830
544.70	0.790
544.90	0.658
545.11	0.266
545.31	1.136
545.52	0.462
545.72	0.842
545.93	0.853
546.13	0.918
546.34	0.730
546.54	0.384
546.75	0.793
546.95	0.987
547.15	0.511
547.36	0.311
547.56	0.688
547.77	0.973
547.97	0.439
548.18	0.615
548.38	0.572
548.59	0.496
548.79	0.739
549.00	0.557
549.20	0.814
549.41	0.579
549.61	0.651
549.81	0.731
550.02	0.790
550.22	0.573
550.43	0.901
550.63	0.778
550.84	0.740
551.04	0.584
551.25	0.795
551.45	0.440
551.65	1.032
551.86	0.763
552.06	0.940
552.27	0.970
552.47	0.615
552.68	1.142
552.88	0.399
553.08	0.810
553.29	0.987
553.49	0.913
553.70	1.197
553.90	1.080
554.11	1.338
554.31	1.191
554.51	1.475
554.72	1.471
554.92	1.820
555.13	2.079
555.33	1.843
555.53	2.210
555.74	2.497
555.94	3.013
556.15	3.521
556.35	3.086
556.56	4.137
556.76	4.197
556.96	4.594
557.17	5.068
557.37	5.834
557.58	6.219
557.78	6.734
557.98	7.246
558.19	8.437
558.39	8.543
558.59	9.852
558.80	10.718
559.00	12.110
559.21	13.206
559.41	14.308
559.61	15.766
559.82	16.999
560.02	18.120
560.23	20.091
560.43	21.733
560.63	22.675
560.84	24.413
561.04	26.108
561.24	27.326
561.45	28.803
561.65	30.209
561.85	32.151
562.06	34.764
562.26	35.807
562.47	36.870
562.67	39.842
562.87	40.690
563.08	42.894
563.28	45.301
563.48	46.430
563.69	48.264
563.89	50.442
564.09	52.605
564.30	53.644
564.50	55.115
564.70	57.219
564.91	58.760
565.11	60.467
565.31	61.316
565.52	64.488
565.72	65.642
565.92	66.313
566.13	68.624
566.33	70.395
566.53	71.819
566.74	72.030
566.94	73.636
567.14	76.103
567.35	77.498
567.55	77.403
567.75	80.411
567.96	80.538
568.16	81.844
568.36	81.844
568.57	81.890
568.77	83.508
568.97	83.967
569.18	85.079
569.38	85.667
569.58	85.914
569.79	86.914
569.99	87.648
570.19	87.871
570.39	86.790
570.60	88.216
570.80	88.369
571.00	89.588
571.21	89.981
571.41	89.896
571.61	88.376
571.82	89.100
572.02	89.603
572.22	89.638
572.42	90.531
572.63	90.687
572.83	92.230
573.03	90.162
573.24	89.514
573.44	90.402
573.64	89.660
573.84	91.695
574.05	90.610
574.25	91.837
574.45	91.533
574.66	91.513
574.86	92.793
575.06	91.993
575.26	93.374
575.47	91.988
575.67	93.681
575.87	92.629
576.07	91.830
576.28	92.545
576.48	92.237
576.68	92.407
576.88	91.001
577.09	92.256
577.29	91.075
577.49	90.481
577.69	91.558
577.90	90.517
578.10	89.353
578.30	89.839
578.50	89.745
578.71	89.401
578.91	89.118
579.11	89.817
579.31	90.001
579.52	89.431
579.72	89.919
579.92	89.545
580.12	88.617
580.33	88.619
580.53	88.311
580.73	88.702
580.93	89.001
581.13	88.358
581.34	87.964
581.54	86.824
581.74	87.480
581.94	87.619
582.15	87.937
582.35	87.805
582.55	86.819
582.75	86.993
582.95	87.222
583.16	86.194
583.36	87.384
583.56	87.139
583.76	87.539
583.96	86.971
584.17	87.174
584.37	87.509
584.57	88.628
584.77	86.706
584.97	88.091
585.18	87.499
585.38	87.738
585.58	86.199
585.78	85.831
585.98	86.391
586.19	86.158
586.39	85.715
586.59	85.976
586.79	85.835
586.99	85.316
587.20	86.673
587.40	87.045
587.60	88.173
587.80	86.217
588.00	86.047
588.20	86.947
588.41	87.264
588.61	86.476
588.81	85.735
589.01	86.557
589.21	85.874
589.41	86.407
589.62	86.771
589.82	86.355
590.02	86.083
590.22	86.764
590.42	85.851
590.62	86.851
590.83	87.421
591.03	86.981
591.23	87.362
591.43	89.090
591.63	88.999
591.83	88.424
592.03	88.783
592.24	89.433
592.44	88.161
592.64	87.890
592.84	87.750
593.04	88.952
593.24	88.671
593.44	89.258
593.65	88.130
593.85	88.347
594.05	89.030
594.25	89.025
594.45	90.177
594.65	89.468
594.85	88.972
595.06	89.048
595.26	89.060
595.46	89.468
595.66	89.260
595.86	88.583
596.06	89.075
596.26	88.879
596.46	89.222
596.66	88.825
596.87	88.505
597.07	89.646
597.27	88.634
597.47	89.907
597.67	88.116
597.87	87.458
598.07	88.492
598.27	87.485
598.47	88.793
598.67	88.803
598.88	87.797
599.08	87.079
599.28	87.622
599.48	85.126
599.68	86.883
599.88	85.976
600.08	86.106
600.28	86.239
600.48	84.829
600.68	84.891
600.88	85.309
601.09	84.293
601.29	83.640
601.49	83.505
601.69	82.574
601.89	81.294
602.09	81.987
602.29	79.555
602.49	80.397
602.69	80.325
602.89	79.866
603.09	78.766
603.29	80.512
603.49	79.185
603.69	78.821
603.90	77.990
604.10	77.750
604.30	78.310
604.50	76.167
604.70	77.108
604.90	77.136
605.10	75.731
605.30	75.551
605.50	75.172
605.70	75.977
605.90	75.042
606.10	74.764
606.30	74.306
606.50	74.522
606.70	73.782
606.90	73.729
607.10	73.687
607.30	71.742
607.50	72.600
607.70	71.385
607.90	71.295
608.10	71.172
608.30	70.165
608.50	69.438
608.70	69.460
608.90	69.215
609.11	68.637
609.31	69.302
609.51	68.362
609.71	68.367
609.91	67.356
610.11	67.028
610.31	67.017
610.51	67.053
610.71	65.258
610.91	65.423
611.11	65.582
611.31	63.547
611.51	63.381
611.71	62.666
611.91	61.668
612.11	61.635
612.31	61.432
612.51	60.592
612.71	59.318
612.91	59.778
613.11	57.881
613.31	58.658
613.51	57.502
613.71	56.431
613.91	56.304
614.11	55.485
614.31	54.282
614.50	54.209
614.70	53.006
614.90	51.815
615.10	51.414
615.30	49.604
615.50	48.330
615.70	47.379
615.90	46.676
616.10	45.030
616.30	44.790
616.50	43.279
616.70	41.997
616.90	40.937
617.10	39.159
617.30	38.354
617.50	37.036
617.70	35.892
617.90	34.572
618.10	32.902
618.30	31.278
618.50	30.716
618.70	28.869
618.90	27.896
619.10	26.746
619.30	24.969
619.49	24.031
619.69	23.017
619.89	21.696
620.09	20.488
620.29	19.221
620.49	17.833
620.69	16.948
620.89	16.035
621.09	15.127
621.29	13.982
621.49	13.465
621.69	12.387
621.89	11.802
622.09	10.580
622.29	9.729
622.48	9.182
622.68	8.703
622.88	7.808
623.08	7.061
623.28	6.371
623.48	5.570
623.68	5.342
623.88	4.745
624.08	4.493
624.28	3.860
624.48	3.759
624.67	3.425
624.87	2.661
625.07	2.550
625.27	2.268
625.47	1.971
625.67	1.736
625.87	1.365
626.07	1.319
626.27	0.991
626.47	0.941
626.66	1.058
626.86	0.926
627.06	0.588
627.26	0.793
627.46	0.684
627.66	0.530
627.86	0.390
628.06	0.589
628.25	0.592
628.45	0.686
628.65	0.347
628.85	0.232
629.05	0.293
629.25	0.166
629.45	0.272
629.65	0.406
629.84	0.537
630.04	0.162
630.24	0.426
630.44	0.254
630.64	0.584
630.84	0.245
631.04	0.549
631.23	0.342
631.43	0.147
631.63	0.170
631.83	0.482
632.03	0.321
632.23	0.261
632.42	0.415
632.62	0.284
632.82	0.285
633.02	0.388
633.22	0.391
633.42	0.386
633.62	0.190
633.81	0.294
634.01	0.106
634.21	0.208
634.41	0.236
634.61	0.283
634.80	0.310
635.00	0.120
635.20	0.412
635.40	0.032
635.60	0.136
635.80	0.210
635.99	0.237
636.19	0.055
636.39	0.327
636.59	0.068
636.79	0.217
636.98	0.377
637.18	0.354
637.38	0.349
637.58	0.390
637.78	0.213
637.97	0.211
638.17	0.201
638.37	0.059
638.57	0.237
638.77	0.460
638.96	0.211
639.16	0.315
639.36	0.171
639.56	0.243
639.76	0.175
639.95	0.247
640.15	0.192
640.35	0.350
640.55	0.347
640.75	0.229
640.94	0.143
641.14	0.140
641.34	0.072
641.54	0.186
641.73	0.429
641.93	0.214
642.13	0.115
642.33	-0.012
642.53	0.287
642.72	0.275
642.92	0.391
643.12	0.151
643.32	0.312
643.51	0.296
643.71	-0.004
643.91	0.095
644.11	0.044
644.30	0.293
644.50	0.249
644.70	0.198
644.90	0.178
645.09	0.233
645.29	0.189
645.49	0.207
645.69	0.206
645.88	0.155
646.08	0.216
646.28	0.213
646.48	0.119
646.67	0.246
646.87	0.169
647.07	0.091
647.26	0.143
647.46	0.175
647.66	0.249
647.86	0.146
648.05	0.359
648.25	0.260
648.45	-0.031
648.65	0.032
648.84	0.224
649.04	0.067
649.24	0.110
649.43	0.288
649.63	0.181
649.83	0.463
650.03	0.181
650.22	0.126
650.42	0.389
650.62	0.158
650.81	0.028
651.01	0.083
651.21	0.083
651.40	0.166
651.60	0.134
651.80	-0.032
652.00	-0.094
652.19	0.223
652.39	-0.024
652.59	0.075
652.78	0.090
652.98	0.150
653.18	0.016
653.37	0.280
653.57	0.181
653.77	0.297
653.96	0.051
654.16	0.244
654.36	0.218
654.55	-0.031
654.75	0.297
654.95	0.145
655.14	0.165
655.34	0.336
655.54	0.082
655.73	0.012
655.93	-0.008
656.13	0.068
656.32	0.146
656.52	0.346
656.72	0.185
656.91	0.239
657.11	0.223
657.31	0.296
657.50	-0.027
657.70	-0.074
657.90	0.152
658.09	-0.055
658.29	0.314
658.49	0.067
658.68	0.137
658.88	0.198
659.07	0.180
659.27	0.216
659.47	0.164
659.66	0.102
659.86	0.359
660.06	0.062
660.25	0.125
660.45	0.031
660.64	0.183
660.84	0.343
661.04	0.016
661.23	0.164
661.43	0.226
661.63	0.294
661.82	0.058
662.02	-0.028
662.21	0.221
662.41	0.191
662.61	0.218
662.80	0.274
663.00	0.327
663.19	0.178
663.39	0.266
663.59	0.137
663.78	0.129
663.98	0.221
664.17	0.219
664.37	0.245
664.57	0.207
664.76	0.213
664.96	0.357
665.15	0.237
665.35	-0.027
665.55	0.067
665.74	0.124
665.94	0.043
666.13	-0.019
666.33	0.191
666.53	0.054
666.72	0.208
666.92	0.152
667.11	0.200
667.31	0.208
667.50	0.089
667.70	0.146
667.90	0.274
668.09	0.050
668.29	-0.156
668.48	0.296
668.68	0.224
668.87	0.102
669.07	0.106
669.26	0.190
669.46	0.199
669.66	0.280
669.85	0.126
670.05	0.286
670.24	0.150
670.44	0.352
670.63	0.187
670.83	0.376
671.02	0.171
671.22	0.059
671.42	-0.055
671.61	0.137
671.81	0.133
672.00	0.346
672.20	0.177
672.39	0.194
672.59	0.223
672.78	0.204
672.98	0.136
673.17	0.043
673.37	-0.028
673.56	0.200
673.76	-0.008
673.95	0.106
674.15	0.000
674.34	0.106
674.54	0.097
674.73	0.148
674.93	0.098
675.13	0.310
675.32	0.294
675.52	0.147
675.71	-0.071
675.91	0.074
676.10	0.066
676.30	0.054
676.49	0.212
676.69	0.162
676.88	0.156
677.08	0.035
677.27	0.150
677.47	0.349
677.66	0.152
677.86	0.155
678.05	0.194
678.24	0.110
678.44	0.000
678.63	0.165
678.83	0.114
679.02	0.208
679.22	0.035
679.41	0.113
679.61	-0.082
679.80	0.130
680.00	0.074
680.19	0.081
680.39	0.164
680.58	0.074
680.78	0.235
680.97	0.187
681.17	0.106
681.36	0.106
681.56	0.337
681.75	0.012
681.94	0.374
682.14	0.169
682.33	0.142
682.53	0.288
682.72	0.263
682.92	0.099
683.11	0.074
683.31	0.055
683.50	0.000
683.69	0.028
683.89	0.217
684.08	0.240
684.28	0.374
684.47	0.194
684.67	-0.063
684.86	0.091
685.06	0.274
685.25	0.036
685.44	0.158
685.64	0.193
685.83	0.260
686.03	0.202
686.22	0.114
686.42	0.199
686.61	0.325
686.80	0.127
687.00	0.300
687.19	0.340
687.39	0.020
687.58	-0.052
687.77	0.123
687.97	0.187
688.16	0.036
688.36	0.028
688.55	0.255
688.74	0.415
688.94	0.223
689.13	-0.101
689.33	0.227
689.52	0.044
689.71	0.297
689.91	0.163
690.10	0.104
690.30	0.210
690.49	0.096
690.68	0.176
690.88	0.088
691.07	0.044
691.27	0.286
691.46	0.134
691.65	-0.024
691.85	0.392
692.04	0.195
692.23	0.132
692.43	0.205
692.62	0.156
692.82	0.210
693.01	0.354
693.20	0.309
693.40	0.215
693.59	0.280
693.78	-0.068
693.98	0.164
694.17	0.152
694.36	0.287
694.56	0.271
694.75	0.152
694.94	0.299
695.14	0.461
695.33	0.302
695.53	0.088
695.72	0.181
695.91	0.196
696.11	-0.044
696.30	0.153
696.49	-0.004
696.69	0.106
696.88	0.154
697.07	-0.069
697.27	0.197
697.46	0.377
697.65	0.141
697.85	0.117
698.04	0.048
698.23	0.125
698.43	0.336
698.62	0.172
698.81	0.198
699.01	0.319
699.20	0.105
699.39	0.278
699.58	0.387
699.78	0.110
699.97	0.168
700.16	0.012
700.36	0.127
700.55	0.252
700.74	0.150
700.94	0.245
701.13	0.333
701.32	0.008
701.52	0.036
701.71	0.167
701.90	0.114
702.09	-0.118
702.29	0.303
702.48	0.229
702.67	0.279
702.87	0.261
703.06	0.225
703.25	0.333
703.44	0.086
703.64	0.170
703.83	0.331
704.02	0.180
704.22	0.270
704.41	0.293
704.60	0.278
704.79	0.238
704.99	0.502
705.18	0.049
705.37	0.287
705.56	0.087
705.76	0.371
705.95	0.336
706.14	0.025
706.33	0.100
706.53	0.270
706.72	0.302
706.91	0.132
707.11	0.328
707.30	0.249
707.49	0.724
707.68	0.281
707.88	0.092
708.07	0.204
708.26	0.141
708.45	0.194
708.64	0.452
708.84	0.138
709.03	0.605
709.22	0.063
709.41	0.080
709.61	0.148
709.80	0.567
709.99	0.267
710.18	0.042
710.38	0.394
710.57	0.067
710.76	0.254
710.95	0.365
711.14	0.574
711.34	0.473
711.53	0.424
711.72	0.390
711.91	0.428
712.11	0.301
712.30	0.250
712.49	0.183
712.68	0.285
712.87	0.527
713.07	0.195
713.26	0.115
713.45	0.356
713.64	0.474
713.83	0.238
714.03	0.327
714.22	0.429
714.41	0.624
714.60	0.296
714.79	0.213
714.99	0.449
715.18	0.391
715.37	0.166
715.56	0.516
715.75	0.379
715.94	0.401
716.14	0.299
716.33	0.215
716.52	0.129
716.71	0.380
716.90	0.367
717.10	0.477
717.29	0.548
717.48	0.362
717.67	0.185
717.86	0.333
718.05	0.159
718.24	0.091
718.44	0.379
718.63	0.506
718.82	0.619
719.01	0.217
719.20	0.323
719.39	0.222
719.59	0.317
719.78	0.087
719.97	0.404
720.16	0.312
720.35	0.219
720.54	0.468
720.73	0.578
720.93	0.487
721.12	0.479
721.31	0.253
721.50	0.503
721.69	0.291
721.88	0.487
722.07	0.192
722.27	0.381
722.46	0.308
722.65	0.473
722.84	0.396
723.03	0.265
723.22	0.295
723.41	0.456
723.60	0.487
723.79	0.507
723.99	0.561
724.18	0.526
724.37	0.508
724.56	0.510
724.75	0.326
724.94	0.330
725.13	0.340
725.32	0.517
725.51	0.364
725.71	0.367
725.90	0.328
726.09	0.470
726.28	0.374
726.47	0.541
726.66	0.609
726.85	0.358
727.04	0.507
727.23	0.307
727.42	0.471
727.61	0.307
727.81	0.416
728.00	0.383
728.19	0.466
728.38	0.049
728.57	0.238
728.76	0.510
728.95	0.518
729.14	0.320
729.33	0.421
729.52	0.400
729.71	0.690
729.90	0.090
730.09	0.618
730.28	0.499
730.48	0.488
730.67	0.372
730.86	0.541
731.05	0.772
731.24	0.476
731.43	0.517
731.62	0.728
731.81	0.554
732.00	0.490
732.19	0.444
732.38	0.574
732.57	0.491
732.76	0.551
732.95	0.803
733.14	0.575
733.33	0.623
733.52	0.485
733.71	0.568
733.90	0.482
734.09	0.475
734.28	0.761
734.47	0.565
734.66	0.400
734.85	0.434
735.04	0.225
735.23	0.498
735.42	0.395
735.61	0.412
735.81	0.626
736.00	0.379
736.19	0.650
736.38	0.379
736.57	0.510
736.76	0.481
736.95	0.260
737.14	0.700
737.33	0.752
737.52	0.854
737.71	0.683
737.90	0.758
738.09	0.656
738.28	0.592
738.47	0.414
738.66	0.483
738.85	0.405
739.04	0.478
739.22	0.729
739.41	0.386
739.60	0.368
739.79	0.793
739.98	0.428
740.17	0.728
740.36	0.800
740.55	0.650
740.74	0.590
740.93	0.309
741.12	0.645
741.31	0.584
741.50	0.638
741.69	0.385
741.88	0.585
742.07	0.211
742.26	0.804
742.45	0.685
742.64	0.646
742.83	0.298
743.02	0.384
743.21	0.838
743.40	0.590
743.59	0.442
743.78	0.633
743.97	0.890
744.16	0.726
744.34	0.478
744.53	0.533
744.72	0.770
744.91	0.338
745.10	0.372
745.29	0.756
745.48	0.530
745.67	0.622
745.86	0.646
746.05	0.611
746.24	0.813
746.43	0.752
746.62	0.834
746.81	0.345
747.00	1.059
747.18	0.845
747.37	0.878
747.56	0.594
747.75	0.651
747.94	0.686
748.13	1.041
748.32	0.761
748.51	0.700
748.70	0.882
748.89	0.522
749.08	0.589
749.26	0.459
749.45	0.934
749.64	0.514
749.83	0.830
750.02	1.077
750.21	0.925
750.40	0.681
750.59	0.957
750.78	0.615
750.96	0.496
751.15	0.640
751.34	0.920
751.53	0.637
751.72	1.092
751.91	0.586
752.10	0.289
752.29	0.966
752.47	0.901
752.66	0.795
752.85	0.583
753.04	0.582
753.23	0.633
753.42	0.508
753.61	0.702
753.80	1.078
753.98	0.965
754.17	0.838
754.36	1.064
754.55	0.602
754.74	0.662
754.93	0.830
755.12	0.831
755.30	0.684
755.49	0.971
755.68	0.804
755.87	0.498
756.06	0.856
756.25	0.642
756.43	0.881
756.62	0.515
756.81	0.968
757.00	0.769
757.19	0.702
757.38	0.790
757.56	0.676
757.75	1.065
757.94	0.662
758.13	0.817
758.32	0.464
758.51	0.843
758.69	0.765
758.88	0.962
759.07	1.023
759.26	0.406
759.45	0.678
759.63	1.162
759.82	0.898
760.01	0.638
760.20	0.917
760.39	0.739
760.57	0.685
760.76	0.984
760.95	0.903
761.14	0.804
761.33	1.095
761.51	0.701
761.70	0.634
761.89	0.825
762.08	0.853
762.27	0.938
762.45	0.536
762.64	1.005
762.83	1.179
763.02	0.491
763.21	0.830
763.39	1.026
763.58	1.018
763.77	1.095
763.96	0.435
764.14	0.862
764.33	0.877
764.52	1.043
764.71	0.726
764.89	0.937
765.08	0.849
765.27	0.811
765.46	0.996
765.65	1.065
765.83	1.103
766.02	0.449
766.21	1.027
766.40	0.604
766.58	0.905
766.77	0.678
766.96	0.832
767.15	0.565
767.33	0.738
767.52	0.982
767.71	0.838
767.90	0.576
768.08	0.840
768.27	0.904
768.46	0.612
768.64	1.106
768.83	0.654
769.02	0.914
769.21	0.959
769.39	0.897
769.58	1.063
769.77	1.107
769.96	0.587
770.14	0.909
770.33	0.943
770.52	0.885
770.70	0.884
770.89	0.942
771.08	1.058
771.27	1.285
771.45	0.805
771.64	0.940
771.83	1.020
772.01	0.598
772.20	0.884
772.39	1.032
772.57	0.829
772.76	0.707
772.95	1.231
773.14	1.078
773.32	0.635
773.51	1.217
773.70	0.624
773.88	1.403
774.07	1.087
774.26	1.243
774.44	0.920
774.63	0.688
774.82	0.689
775.00	0.770
775.19	0.973
775.38	1.269
775.56	0.941
775.75	1.251
775.94	0.847
776.12	0.699
776.31	1.071
776.50	1.084
776.68	1.034
776.87	1.155
777.06	0.977
777.24	0.949
777.43	1.168
777.62	0.859
777.80	1.221
777.99	1.104
778.18	1.454
778.36	0.628
778.55	1.235
778.74	1.477
778.92	0.901
779.11	0.703
779.29	1.201
779.48	0.933
779.67	1.008
779.85	1.158
780.04	1.136
780.23	1.059
780.41	1.508
780.60	1.021
780.79	1.279
780.97	1.259
781.16	0.851
781.34	1.190
781.53	1.164
781.72	0.890
781.90	1.030
782.09	0.728
782.28	1.235
782.46	1.408
782.65	1.015
782.83	1.012
783.02	1.180
783.21	0.991
783.39	1.288
783.58	1.070
783.76	1.173
783.95	1.404
784.14	0.956
784.32	0.702
784.51	1.587
784.69	1.071
784.88	1.276
785.06	1.053
785.25	1.217
785.44	1.350
785.62	0.989
785.81	0.910
785.99	1.113
786.18	0.692
786.37	1.297
786.55	0.890
786.74	1.331
786.92	1.515
787.11	0.565
787.29	1.011
787.48	1.161
787.67	0.692
787.85	0.890
788.04	0.985
788.22	1.034
788.41	1.474
788.59	1.146
788.78	1.184
788.96	1.413
789.15	1.245
789.34	1.432
789.52	1.039
789.71	1.252
789.89	1.428
790.08	0.952
790.26	0.926
790.45	1.185
790.63	1.160
790.82	1.259
791.00	1.616
791.19	1.252
791.38	1.074
791.56	0.999
791.75	1.147
791.93	1.035
792.12	0.982
792.30	1.415
792.49	1.056
792.67	1.311
792.86	1.100
793.04	1.671
793.23	1.109
793.41	1.311
793.60	1.516
793.78	1.143
793.97	1.415
794.15	1.366
794.34	1.383
794.52	1.145
794.71	1.395
794.89	1.634
795.08	1.635
795.26	1.037
795.45	1.599
795.63	1.018
795.82	1.239
796.00	0.901
796.19	0.948
796.37	1.523
796.56	1.334
796.74	1.374
796.93	1.506
797.11	1.477
797.30	1.226
797.48	1.605
797.67	1.708
797.85	1.406
798.04	1.420
798.22	1.300
798.41	1.521
798.59	1.241
798.77	1.374
798.96	1.303
799.14	1.255
799.33	1.021
799.51	1.172
799.70	1.185
799.88	1.386
800.07	1.497
800.25	1.211
800.44	1.155
800.62	1.008
800.80	1.410
800.99	1.512
801.17	1.292
801.36	1.381
801.54	1.313
801.73	1.237
801.91	1.108
802.10	1.547
802.28	1.418
802.46	1.514
802.65	1.202
802.83	1.569
803.02	1.364
803.20	1.271
803.39	1.162
803.57	1.558
803.75	1.010
803.94	1.455
804.12	1.310
804.31	1.312
804.49	1.403
804.67	1.379
804.86	1.160
805.04	1.597
805.23	1.400
805.41	1.217
805.59	1.353
805.78	1.327
805.96	0.905
806.15	1.785
806.33	1.282
806.51	1.632
806.70	1.676
806.88	1.567
807.07	1.414
807.25	1.563
807.43	1.293
807.62	1.615
807.80	1.281
807.99	1.783
808.17	1.344
808.35	1.616
808.54	1.496
808.72	1.402
808.90	1.201
809.09	1.081
809.27	1.771
809.46	1.516
809.64	1.501
809.82	1.658
810.01	1.337
810.19	1.388
810.37	1.603
810.56	1.458
810.74	1.360
810.92	1.465
811.11	1.820
811.29	1.360
811.48	1.068
811.66	1.268
811.84	1.840
812.03	1.777
812.21	1.461
812.39	1.653
812.58	0.831
812.76	2.050
812.94	1.617
813.13	1.520
813.31	1.416
813.49	1.678
813.68	1.334
813.86	1.740
814.04	1.595
814.23	1.670
814.41	1.827
814.59	1.300
814.78	1.717
814.96	2.218
815.14	1.739
815.33	1.461
815.51	2.007
815.69	1.584
815.87	1.252
816.06	2.121
816.24	1.786
816.42	1.793
816.61	1.084
816.79	1.968
816.97	1.904
817.16	1.984
817.34	1.408
817.52	1.718
817.70	1.766
817.89	1.741
818.07	1.899
818.25	1.908
818.44	1.848
818.62	1.760
818.80	1.350
818.98	1.657
819.17	1.793
819.35	1.671
819.53	1.588
819.72	1.589
819.90	1.983
820.08	1.769
820.26	1.701
820.45	1.586
820.63	2.234
820.81	1.654
820.99	1.843
821.18	1.362
821.36	2.214
821.54	2.099
821.73	1.532
821.91	1.557
822.09	1.586
822.27	2.076
822.46	1.785
822.64	2.278
822.82	2.069
823.00	1.828
823.19	1.738
823.37	2.037
823.55	1.401
823.73	1.567
823.91	1.532
824.10	1.685
824.28	1.586
824.46	1.835
824.64	1.569
824.83	1.692
825.01	1.687
825.19	1.817
825.37	1.666
825.56	1.939
825.74	2.155
825.92	1.608
826.10	1.352
826.28	1.713
826.47	2.026
826.65	2.006
826.83	2.008
827.01	1.681
827.19	1.765
827.38	2.380
827.56	2.191
827.74	1.830
827.92	1.998
828.10	2.436
828.29	2.228
828.47	2.138
828.65	1.560
828.83	2.003
829.01	1.686
829.20	1.268
829.38	1.567
829.56	1.687
829.74	1.820
829.92	1.912
830.10	2.097
830.29	1.828
830.47	2.427
830.65	1.128
830.83	1.982
831.01	2.212
831.20	1.757
831.38	1.605
831.56	2.379
831.74	1.872
831.92	1.775
832.10	2.026
832.29	1.818
832.47	1.751
832.65	1.319
832.83	1.569
833.01	1.499
833.19	1.728
833.37	1.909
833.56	2.065
833.74	1.904
833.92	1.578
834.10	1.909
834.28	1.324
834.46	2.550
834.64	1.856
834.83	1.816
835.01	1.979
835.19	1.811
835.37	1.666
835.55	0.873
835.73	1.993
835.91	2.346
836.09	1.696
836.28	1.581
836.46	1.822
836.64	2.257
836.82	1.506
837.00	1.923
837.18	2.254
837.36	2.219
837.54	1.921
837.72	2.352
837.91	2.071
838.09	1.800
838.27	1.567
838.45	1.582
838.63	1.455
838.81	2.299
838.99	1.591
839.17	1.717
839.35	1.754
839.53	1.418
839.72	1.981
839.90	1.882
840.08	2.243
840.26	2.441
840.44	2.448
840.62	1.566
840.80	1.926
840.98	2.155
841.16	1.767
841.34	2.485
841.52	1.815
841.70	1.637
841.89	1.308
842.07	2.043
842.25	1.854
842.43	1.756
842.61	2.163
842.79	1.943
842.97	1.136
843.15	2.210
843.33	2.248
843.51	2.291
843.69	1.697
843.87	1.425
844.05	2.401
844.23	1.878
844.41	1.613
844.59	1.836
844.77	2.031
844.95	2.135
845.13	1.292
845.31	1.967
845.50	2.332
845.68	1.398
845.86	1.794
846.04	2.061
846.22	1.855
846.40	1.284
846.58	1.321
846.76	1.748
846.94	2.029
847.12	1.890
847.30	1.608
847.48	2.306
847.66	2.427
847.84	2.131
848.02	2.183
848.20	2.314
848.38	1.887
848.56	1.822
848.74	1.231
848.92	1.816
849.10	2.405
849.28	2.616
849.46	2.550
849.64	2.311
849.82	1.971
850.00	1.948
850.18	1.750
850.36	2.185
850.54	1.679
850.72	2.117
850.90	2.094
851.08	2.038
851.26	1.966
851.44	2.490
851.62	1.359
851.80	2.138
851.98	1.637
852.16	1.798
852.34	1.886
852.52	1.879
852.70	1.897
852.87	1.741
853.05	1.800
853.23	2.309
853.41	2.191
853.59	2.262
853.77	2.037
853.95	2.058
854.13	1.432
854.31	2.014
854.49	1.805
854.67	2.381
854.85	1.816
855.03	2.200
855.21	1.922
855.39	2.053
855.57	2.194
855.75	2.102
855.93	1.635
856.11	1.705
856.28	1.802
856.46	2.287
856.64	2.283
856.82	1.808
857.00	2.607
857.18	2.153
857.36	2.339
857.54	1.715
857.72	2.381
857.90	1.776
858.08	1.834
858.26	2.343
858.44	1.804
858.61	1.607
858.79	1.912
858.97	2.203
859.15	2.013
859.33	2.163
859.51	1.485
859.69	2.381
859.87	2.035
860.05	1.482
860.23	1.983
860.40	2.216
860.58	1.531
860.76	2.709
860.94	1.975
861.12	2.055
861.30	1.580
861.48	1.817
861.66	2.410
861.84	1.799
862.01	2.717
862.19	1.869
862.37	1.759
862.55	2.154
862.73	2.088
862.91	2.086
863.09	1.697
863.27	2.424
863.44	2.052
863.62	2.092
863.80	2.655
863.98	1.499
864.16	2.066
864.34	2.046
864.52	2.544
864.69	2.217
864.87	2.449
865.05	1.505
865.23	2.667
865.41	1.741
865.59	1.672
865.76	2.104
865.94	2.762
866.12	1.985
866.30	2.751
866.48	2.196
866.66	1.616
866.83	1.797
867.01	2.311
867.19	2.125
867.37	2.264
867.55	1.665
867.73	2.604
867.90	2.278
868.08	1.776
868.26	2.195
868.44	1.981
868.62	2.709
868.79	2.405
868.97	3.053
869.15	2.151
869.33	2.606
869.51	2.105
869.69	2.550
869.86	1.975
870.04	2.654
870.22	2.361
870.40	3.088
870.57	3.087
870.75	3.459
870.93	2.936
871.11	3.991
871.29	2.983
871.46	2.908
871.64	2.892
871.82	3.754
872.00	4.060
872.18	3.762
872.35	5.277
872.53	4.461
872.71	4.122
872.89	4.320
873.06	4.084
873.24	5.106
873.42	5.063
873.60	5.192
873.77	4.441
873.95	5.563
874.13	6.060
874.31	6.442
874.49	6.309
874.66	6.976
874.84	6.052
875.02	6.610
875.20	6.350
875.37	6.988
875.55	7.178
875.73	6.824
875.91	7.636
876.08	7.269
876.26	7.579
876.44	7.751
876.61	7.512
876.79	8.196
876.97	7.866
877.15	8.167
877.32	7.955
877.50	7.765
877.68	8.877
877.86	8.263
878.03	8.486
878.21	8.904
878.39	8.268
878.56	8.105
878.74	9.337
878.92	7.629
879.10	8.720
879.27	8.893
879.45	8.977
879.63	9.795
879.80	8.994
879.98	8.437
880.16	8.870
880.34	10.040
880.51	10.201
880.69	9.270
880.87	8.933
881.04	9.843
881.22	9.071
881.40	9.578
881.57	9.699
881.75	10.135
881.93	9.943
882.10	9.263
882.28	9.729
882.46	10.074
882.63	10.392
882.81	10.383
882.99	8.814
883.16	9.714
883.34	10.656
883.52	10.851
883.69	10.327
883.87	10.407
884.05	9.887
884.22	10.856
884.40	10.119
884.58	10.510
884.75	9.571
884.93	11.455
885.11	9.841
885.28	9.928
885.46	10.493
885.64	9.737
885.81	9.976
885.99	10.810
886.17	11.191
886.34	10.461
886.52	11.537
886.70	11.662
886.87	11.261
887.05	11.621
887.22	12.124
887.40	12.643
887.58	13.052
887.75	12.570
887.93	13.087
888.11	12.549
888.28	13.873
888.46	13.713
888.63	14.522
888.81	14.217
888.99	15.441
889.16	14.587
889.34	14.264
889.51	15.176
889.69	14.965
889.87	15.723
890.04	14.568
890.22	16.011
890.39	15.713
890.57	16.300
890.75	16.835
890.92	16.590
891.10	16.254
891.27	17.940
891.45	17.882
891.63	17.455
891.80	18.450
891.98	19.323
892.15	18.530
892.33	19.112
892.51	19.711
892.68	19.425
892.86	18.366
893.03	20.994
893.21	19.729
893.38	19.850
893.56	19.503
893.74	20.510
893.91	20.893
894.09	19.929
894.26	20.841
894.44	21.178
894.61	21.336
894.79	20.554
894.96	21.858
895.14	22.165
895.32	22.432
895.49	21.969
895.67	21.487
895.84	21.188
896.02	22.194
896.19	22.104
896.37	22.025
896.54	22.384
896.72	22.121
896.89	22.032
897.07	21.781
897.25	22.082
897.42	22.179
897.60	21.838
897.77	21.621
897.95	23.022
898.12	22.440
898.30	22.219
898.47	21.867
898.65	23.271
898.82	22.765
899.00	22.268
899.17	23.319
899.35	23.102
899.52	23.611
899.70	23.550
899.87	23.038
900.05	23.914
900.22	23.518
900.40	23.729
900.57	24.356
900.75	24.566
900.92	24.997
901.10	23.696
901.27	24.264
901.45	24.700
901.62	24.631
901.80	24.518
901.97	25.713
902.15	25.133
902.32	24.942
902.50	26.284
902.67	24.905
902.85	25.238
903.02	27.040
903.20	27.036
903.37	26.479
903.54	27.358
903.72	27.413
903.89	26.926
904.07	27.247
904.24	27.309
904.42	27.107
904.59	28.330
904.77	28.120
904.94	28.110
905.12	29.439
905.29	27.966
905.47	29.263
905.64	29.074
905.81	30.104
905.99	30.984
906.16	29.544
906.34	30.910
906.51	31.593
906.69	31.469
906.86	32.607
907.03	32.399
907.21	31.766
907.38	33.623
907.56	32.836
907.73	33.970
907.91	34.402
908.08	34.411
908.25	35.885
908.43	35.082
908.60	36.510
908.78	36.989
908.95	36.836
909.13	38.242
909.30	39.247
909.47	38.023
909.65	40.568
909.82	41.012
910.00	39.890
910.17	40.610
910.34	41.823
910.52	41.972
910.69	41.427
910.87	41.796
911.04	42.836
911.21	42.875
911.39	43.947
911.56	43.881
911.73	44.335
911.91	43.231
912.08	45.645
912.26	44.837
912.43	46.402
912.60	46.753
912.78	48.007
912.95	47.480
913.13	45.843
913.30	47.415
913.47	46.351
913.65	46.931
913.82	47.990
913.99	50.469
914.17	51.082
914.34	49.736
914.51	48.124
914.69	49.637
914.86	48.792
915.03	48.228
915.21	48.142
915.38	47.922
915.56	50.402
915.73	49.950
915.90	49.785
916.08	49.967
916.25	51.980
916.42	50.808
916.60	50.781
916.77	51.421
916.94	50.801
917.12	51.170
917.29	51.551
917.46	50.457
917.64	51.704
917.81	50.792
917.98	52.025
918.16	51.351
918.33	53.142
918.50	50.336
918.67	50.250
918.85	51.300
919.02	50.872
919.19	52.335
919.37	50.927
919.54	54.074
919.71	49.777
919.89	51.570
920.06	51.988
920.23	54.433
920.41	50.505
920.58	51.795
920.75	49.754
920.92	51.313
921.10	49.348
921.27	50.896
921.44	50.979
921.62	49.709
921.79	50.703
921.96	50.544
922.13	50.521
922.31	48.251
922.48	49.506
922.65	48.574
922.82	49.503
923.00	48.028
923.17	47.500
923.34	46.000
923.52	46.953
923.69	46.920
923.86	47.712
924.03	45.660
924.21	45.738
924.38	44.872
924.55	45.767
924.72	46.158
924.90	46.233
925.07	45.782
925.24	44.886
925.41	43.421
925.59	45.158
925.76	44.400
925.93	42.050
926.10	41.381
926.28	41.016
926.45	41.563
926.62	39.213
926.79	38.547
926.96	40.108
927.14	39.030
927.31	38.960
927.48	36.518
927.65	36.646
927.83	38.210
928.00	35.014
928.17	34.428
928.34	33.442
928.51	34.788
928.69	33.293
928.86	33.394
929.03	34.670
929.20	33.911
929.37	31.137
929.55	30.772
929.72	30.139
929.89	30.147
930.06	31.876
930.23	29.697
930.41	29.309
930.58	29.484
930.75	30.403
930.92	30.359
931.09	29.438
931.27	28.655
931.44	28.378
931.61	28.614
931.78	29.153
931.95	28.329
932.12	28.874
932.30	29.666
932.47	27.467
932.64	30.028
932.81	28.963
932.98	27.990
933.16	28.439
933.33	30.474
933.50	28.256
933.67	29.658
933.84	29.187
934.01	27.496
934.18	28.358
934.36	29.483
934.53	29.647
934.70	29.043
934.87	28.532
935.04	24.929
935.21	25.438
935.38	25.361
935.56	26.491
935.73	24.625
935.90	25.235
936.07	24.507
936.24	26.429
936.41	25.131
936.58	24.714
936.76	23.183
936.93	24.755
937.10	23.979
937.27	23.451
937.44	23.971
937.61	24.520
937.78	23.923
937.95	24.165
938.13	24.928
938.30	22.431
938.47	24.262
938.64	24.425
938.81	23.210
938.98	23.310
939.15	24.844
939.32	24.291
939.49	26.184
939.66	24.352
939.84	24.767
940.01	22.762
940.18	22.011
940.35	22.366
940.52	24.081
940.69	25.062
940.86	22.631
941.03	22.493
941.20	24.473
941.37	21.854
941.54	20.780
941.71	20.102
941.89	22.368
942.06	21.047
942.23	21.419
942.40	20.411
942.57	19.669
942.74	18.324
942.91	20.520
943.08	18.772
943.25	17.272
943.42	18.107
943.59	18.018
943.76	17.074
943.93	16.967
944.10	16.997
944.27	18.442
944.44	17.287
944.61	16.186
944.79	14.623
944.96	15.277
945.13	17.740
945.30	13.273
945.47	14.359
945.64	13.168
945.81	14.629
945.98	15.152
946.15	15.813
946.32	12.883
946.49	14.725
946.66	15.534
946.83	12.993
947.00	14.984
947.17	13.461
947.34	13.365
947.51	13.494
947.68	15.854
947.85	16.022
948.02	15.313
948.19	13.240
948.36	14.471
948.53	13.647
948.70	14.604
948.87	14.514
949.04	15.378
949.21	14.118
949.38	15.027
949.55	14.696
949.72	14.142
949.89	17.129
950.06	16.116
950.23	15.206
950.40	13.724
950.57	15.508
950.74	14.009
950.91	14.900
951.08	13.086
951.25	13.209
951.42	15.731
951.59	15.109
951.76	12.853
951.93	12.419
952.10	13.164
952.27	11.767
952.44	13.755
952.61	14.824
952.77	14.220
952.94	15.037
953.11	15.925
953.28	15.759
953.45	13.512
953.62	14.342
953.79	10.876
953.96	14.044
954.13	13.770
954.30	11.726
954.47	14.817
954.64	12.202
954.81	13.735
954.98	11.772
955.15	11.184
955.32	14.665
955.49	10.789
955.65	12.405
955.82	12.712
955.99	13.154
956.16	12.390
956.33	13.641
956.50	12.314
956.67	12.513
956.84	12.930
957.01	13.492
957.18	11.678
957.35	12.241
957.52	11.194
957.68	12.933
957.85	11.919
958.02	12.718
958.19	11.585
958.36	9.823
958.53	11.234
958.70	11.933
958.87	10.393
959.04	11.522
959.21	7.336
959.37	10.492
959.54	10.474
959.71	8.419
959.88	8.583
960.05	9.088
960.22	8.346
960.39	7.368
960.56	7.947
960.72	7.189
960.89	9.036
961.06	8.906
961.23	7.942
961.40	8.653
961.57	4.720
961.74	4.620
961.90	6.836
962.07	7.640
962.24	7.698
962.41	6.529
962.58	6.264
962.75	3.615
962.92	5.080
963.08	7.291
963.25	3.935
963.42	6.701
963.59	7.933
963.76	5.166
963.93	6.982
964.10	5.019
964.26	5.296
964.43	4.501
964.60	3.978
964.77	5.584
964.94	4.793
965.10	5.081
965.27	5.477
965.44	3.908
965.61	4.458
965.78	4.632
965.95	5.832
966.11	5.285
966.28	5.094
966.45	4.226
966.62	3.283
966.79	5.572
966.95	2.670
967.12	6.137
967.29	5.941
967.46	4.418
967.63	4.715
967.79	5.723
967.96	5.375
968.13	2.548
968.30	4.743
968.47	3.444
968.63	4.423
968.80	5.055
968.97	6.929
969.14	4.809
969.31	4.773
969.47	4.743
969.64	4.511
969.81	1.825
969.98	6.770
970.14	2.322
970.31	3.327
970.48	4.863
970.65	4.741
970.81	2.278
970.98	5.721
971.15	3.910
971.32	6.403
971.48	3.310
971.65	6.561
971.82	5.996
971.99	3.230
972.15	2.599
972.32	3.973
972.49	3.671
972.66	5.084
972.82	5.232
972.99	3.963
973.16	4.797
973.33	6.500
973.49	4.485
973.66	3.219
973.83	3.524
974.00	9.236
974.16	3.819
974.33	6.193
974.50	7.235
974.67	5.258
974.83	4.490
975.00	8.394
975.17	3.935
975.33	6.819
975.50	4.406
975.67	5.247
975.84	4.610
976.00	7.384
976.17	6.914
976.34	6.250
976.50	4.955
976.67	4.921
976.84	6.150
977.00	5.818
977.17	9.338
977.34	9.756
977.50	8.393
977.67	6.770
977.84	7.163
978.01	9.127
978.17	11.528
978.34	11.551
978.51	6.882
978.67	10.238
978.84	11.949
979.01	7.523
979.17	9.836
979.34	8.391
979.51	9.070
979.67	14.102
979.84	13.577
980.01	12.130
980.17	10.796
980.34	9.618
980.51	10.660
980.67	12.824
980.84	10.047
981.01	12.922
981.17	16.005
981.34	17.909
981.50	16.312
981.67	12.144
981.84	15.220
982.00	15.730
982.17	10.663
982.34	11.989
982.50	11.223
982.67	13.522
982.84	18.860
983.00	16.764
983.17	13.151
983.33	10.968
983.50	15.987
983.67	9.073
983.83	11.757
984.00	19.910
984.17	16.121
984.33	15.354
984.50	18.706
984.66	17.122
984.83	16.462
985.00	18.093
985.16	15.911
985.33	13.174
985.49	17.361
985.66	16.781
985.83	14.408
985.99	17.086
986.16	15.629
986.32	18.865
986.49	20.370
986.66	16.957
986.82	16.833
986.99	19.004
987.15	17.251
987.32	16.667
987.49	19.606
987.65	18.423
987.82	17.214
987.98	21.158
988.15	23.554
988.31	21.471
988.48	20.625
988.65	23.613
988.81	18.654
988.98	20.751
989.14	15.219
989.31	21.681
989.47	18.999
989.64	23.934
989.80	25.389
989.97	25.434
990.14	28.112
990.30	25.019
990.47	20.766
990.63	32.540
990.80	27.605
990.96	30.253
991.13	26.634
991.29	30.156
991.46	29.347
991.62	30.599
991.79	28.799
991.95	30.531
992.12	34.191
992.29	29.891
992.45	33.856
992.62	30.987
992.78	31.657
992.95	30.379
993.11	35.142
993.28	32.667
993.44	24.870
993.61	28.632
993.77	31.683
993.94	28.934
994.10	36.742
994.27	29.848
994.43	33.188
994.60	32.192
994.76	33.011
994.93	31.769
995.09	37.285
995.26	36.180
995.42	36.738
995.59	36.521
995.75	33.273
995.92	38.948
996.08	39.286
996.25	42.087
996.41	32.936
996.58	40.054
996.74	38.164
996.91	40.351
997.07	37.338
997.23	46.402
997.40	38.904
997.56	44.880
997.73	41.306
997.89	42.725
998.06	41.001
998.22	37.327
998.39	39.122
998.55	36.499
998.72	43.844
998.88	48.024
999.05	38.889
999.21	42.944
999.37	47.908
999.54	43.933
999.70	41.325
999.87	49.383
1000.03	48.872
1000.20	52.431
1000.36	47.826
1000.52	43.778
1000.69	53.993
1000.85	37.462
1001.02	43.996
1001.18	45.204
1001.35	46.909
1001.51	46.370
1001.67	41.977
1001.84	42.656
1002.00	44.824
1002.17	42.373
1002.33	43.546
1002.50	42.874
1002.66	44.548
1002.82	40.991
1002.99	43.052
1003.15	42.735
1003.32	41.912
1003.48	45.509
1003.64	49.348
1003.81	46.740
1003.97	45.657
1004.14	46.244
1004.30	40.392
1004.46	45.381
1004.63	51.986
1004.79	43.052
1004.95	47.447
1005.12	52.956
1005.28	50.414
1005.45	49.202
1005.61	40.986
1005.77	44.251
1005.94	54.752
1006.10	52.267
1006.26	45.833
1006.43	48.391
1006.59	50.837
1006.76	47.185
1006.92	52.471
1007.08	56.410
1007.25	43.982
1007.41	53.189
1007.57	49.788
1007.74	54.134
1007.90	48.624
1008.06	51.172
1008.23	53.133
1008.39	66.263
1008.55	59.623
1008.72	51.498
1008.88	64.565
1009.04	65.113
1009.21	56.879
1009.37	55.367
1009.53	62.578
1009.70	67.160
1009.86	64.457
1010.02	57.557
1010.19	58.479
1010.35	64.741
1010.51	66.387
1010.68	68.798
1010.84	70.178
1011.00	65.736
1011.17	64.804
1011.33	60.030
1011.49	71.111
1011.66	69.941
1011.82	68.161
1011.98	66.984
1012.14	66.381
1012.31	75.684
1012.47	72.960
1012.63	79.512
1012.80	61.929
1012.96	72.575
1013.12	67.430
1013.29	65.141
1013.45	65.789
1013.61	70.813
1013.77	83.935
1013.94	70.447
1014.10	77.583
1014.26	74.861
1014.43	77.883
1014.59	83.366
1014.75	81.139
1014.91	84.574
1015.08	91.985
1015.24	81.221
1015.40	77.778
1015.56	83.396
1015.73	74.956
1015.89	90.257
1016.05	68.934
1016.21	64.261
1016.38	85.401
1016.54	88.868
1016.70	79.108
1016.86	100.762
1017.03	82.969
1017.19	70.863
1017.35	89.845
1017.51	86.311
1017.68	76.955
1017.84	80.488
1018.00	80.732
1018.16	84.280
1018.33	95.289
1018.49	87.657
1018.65	106.742
1018.81	86.352
1018.97	83.000
1019.14	93.460
1019.30	96.420
1019.46	100.694
1019.62	98.678
1019.79	84.767
1019.95	86.067
1020.11	106.897
1020.27	94.681
1020.43	79.015
1020.60	103.774
1020.76	99.338
1020.92	109.291
1021.08	93.933
1021.24	82.639
1021.41	100.585
1021.57	99.752
1021.73	87.500
1021.89	93.736
1022.05	92.640
1022.21	115.567
1022.38	79.263
1022.54	86.732
1022.70	94.933
1022.86	88.399
1023.02	99.755
1023.19	95.503
1023.35	98.677
1023.51	81.905
1023.67	86.649
1023.83	95.822
1023.99	111.280
1024.16	102.484
1024.32	76.413
1024.48	92.593
1024.64	84.242
1024.80	111.080
1024.96	105.898
1025.12	91.620
1025.29	81.984
1025.45	89.097
1025.61	84.302
1025.77	70.292
1025.93	88.804
1026.09	85.112
1026.26	88.026
1026.42	80.161
1026.58	90.909
1026.74	102.583
1026.90	85.152
1027.06	82.166
1027.22	91.131
1027.38	90.625
1027.55	96.680
1027.71	87.179
1027.87	100.551
1028.03	89.577
1028.19	71.691
1028.35	86.207
1028.51	101.460
1028.67	69.123
1028.83	81.203
1029.00	87.266
1029.16	92.308
1029.32	100.412
1029.48	81.250
1029.64	96.358
1029.80	75.789
1029.96	99.681
1030.12	98.980
1030.28	85.811
1030.44	103.273
1030.61	94.531
1030.77	74.206
1030.93	88.593
1031.09	77.311
1031.25	119.070
1031.41	89.423
1031.57	83.516
1031.73	82.743
1031.89	106.939
1032.05	74.699
1032.21	98.655
1032.37	92.593
1032.53	103.636
1032.69	84.362
1032.86	77.778
1033.02	74.757
1033.18	95.885
1033.34	104.688
1033.50	81.538
1033.66	93.137
1033.82	84.848
1033.98	84.681
1034.14	110.119
1034.30	93.363
1034.46	86.498
1034.62	92.982
1034.78	77.578
1034.94	63.035
1035.10	118.000
1035.26	67.672
1035.42	86.471
1035.58	82.927
1035.74	90.090
1035.90	104.082
1036.06	64.878
1036.22	96.154
1036.38	100.000
1036.54	75.234
1036.70	67.033
1036.86	70.455
1037.02	92.414
1037.18	86.022
1037.34	98.571
1037.50	128.495
1037.66	111.888
1037.82	65.700
1037.98	79.188
1038.14	111.696
1038.30	111.538
1038.46	74.324
1038.62	75.127
1038.78	105.469
1038.94	101.562
1039.10	87.302
1039.26	65.868
1039.42	67.593
1039.58	62.234
1039.74	51.351
1039.90	76.282
1040.06	87.255
>>>>>End Processed Spectral Data<<<<<
