SpectraSuite Data File
++++++++++++++++++++++++++++++++++++
Date: Mon Mar 27 20:03:06 EEST 2017
User: TheoProf
Dark Spectrum Present: Yes
Reference Spectrum Present: Yes
Number of Sampled Component Spectra: 1
Spectrometers: USB4C02475
Integration Time (usec): 426341 (USB4C02475)
Spectra Averaged: 1 (USB4C02475)
Boxcar Smoothing: 0 (USB4C02475)
Correct for Electrical Dark: No (USB4C02475)
Strobe/Lamp Enabled: No (USB4C02475)
Correct for Detector Non-linearity: No (USB4C02475)
Correct for Stray Light: No (USB4C02475)
Number of Pixels in Processed Spectrum: 3648
>>>>>Begin Processed Spectral Data<<<<<
344.91	55.882
345.13	55.882
345.35	55.882
345.57	0.000
345.79	29.630
346.00	-589.474
346.22	-305.263
346.44	425.000
346.66	983.333
346.87	361.667
347.09	0.000
347.31	-307.692
347.53	-310.714
347.74	-10.937
347.96	-108.333
348.18	385.000
348.40	1125.000
348.61	-292.000
348.83	-475.000
349.05	-380.952
349.27	152.857
349.48	-683.333
349.70	428.571
349.92	1310.000
350.14	-400.000
350.35	2725.000
350.57	327.273
350.79	447.619
351.01	255.102
351.22	340.541
351.44	-785.714
351.66	157.143
351.87	440.541
352.09	158.209
352.31	186.486
352.53	353.333
352.74	198.551
352.96	177.193
353.18	260.417
353.40	131.915
353.61	247.826
353.83	146.479
354.05	600.000
354.26	-3166.667
354.48	1750.000
354.70	-520.000
354.92	193.151
355.13	478.571
355.35	-1318.182
355.57	-100.000
355.78	134.211
356.00	662.500
356.22	341.935
356.44	1575.000
356.65	2080.000
356.87	1300.000
357.09	380.000
357.30	395.652
357.52	171.429
357.74	653.333
357.95	195.313
358.17	-1675.000
358.39	-212.500
358.60	2825.000
358.82	50.000
359.04	168.966
359.26	134.043
359.47	359.259
359.69	560.714
359.91	293.548
360.12	410.526
360.34	-890.909
360.56	600.000
360.77	-1020.000
360.99	-1545.455
361.21	217.778
361.42	-4066.667
361.64	-828.571
361.86	592.857
362.07	720.833
362.29	246.667
362.51	205.714
362.72	530.000
362.94	151.786
363.16	240.000
363.37	275.000
363.59	161.429
363.81	297.297
364.02	818.750
364.24	7300.000
364.46	448.148
364.67	242.593
364.89	354.545
365.11	0.000
365.32	283.333
365.54	-368.750
365.76	-164.286
365.97	308.696
366.19	294.444
366.41	161.538
366.62	238.182
366.84	103.750
367.05	218.182
367.27	3633.333
367.49	478.571
367.70	182.609
367.92	160.976
368.14	152.308
368.35	357.692
368.57	104.819
368.79	135.165
369.00	254.386
369.22	212.000
369.43	173.626
369.65	1242.857
369.87	481.818
370.08	244.444
370.30	230.435
370.51	376.923
370.73	83.117
370.95	427.273
371.16	280.000
371.38	520.000
371.60	906.250
371.81	450.000
372.03	1650.000
372.24	354.286
372.46	329.630
372.68	126.761
372.89	170.667
373.11	111.881
373.32	-80.769
373.54	1500.000
373.76	160.606
373.97	204.167
374.19	167.089
374.40	491.176
374.62	384.848
374.84	-453.846
375.05	150.000
375.27	688.235
375.48	495.238
375.70	332.258
375.92	88.793
376.13	-1200.000
376.35	97.619
376.56	222.449
376.78	103.000
376.99	327.273
377.21	279.070
377.43	164.516
377.64	257.500
377.86	122.500
378.07	184.127
378.29	190.476
378.51	95.294
378.72	294.872
378.94	97.436
379.15	28.421
379.37	105.357
379.58	136.923
379.80	131.148
380.01	176.923
380.23	390.000
380.45	217.778
380.66	520.000
380.88	105.882
381.09	159.574
381.31	129.487
381.52	76.154
381.74	38.158
381.95	295.238
382.17	130.357
382.39	163.889
382.60	151.429
382.82	91.818
383.03	86.076
383.25	205.263
383.46	61.818
383.68	112.121
383.89	124.324
384.11	168.182
384.32	100.000
384.54	-285.714
384.76	93.548
384.97	146.774
385.19	81.429
385.40	141.096
385.62	147.143
385.83	107.059
386.05	112.069
386.26	83.471
386.48	67.033
386.69	44.000
386.91	32.979
387.12	133.333
387.34	100.901
387.55	40.278
387.77	58.915
387.98	90.071
388.20	50.467
388.41	45.238
388.63	85.606
388.84	33.708
389.06	108.571
389.27	53.731
389.49	76.471
389.70	98.473
389.92	72.727
390.13	21.053
390.35	53.435
390.56	112.500
390.78	89.542
390.99	73.196
391.21	20.588
391.42	29.323
391.64	81.818
391.85	37.736
392.07	60.684
392.28	47.468
392.50	52.083
392.71	78.740
392.93	43.939
393.14	74.419
393.36	105.738
393.57	17.593
393.79	76.829
394.00	52.174
394.22	99.138
394.43	62.105
394.65	47.778
394.86	21.512
395.08	57.377
395.29	20.513
395.50	36.082
395.72	21.472
395.93	103.871
396.15	6.790
396.36	41.176
396.58	39.041
396.79	14.110
397.01	49.206
397.22	32.990
397.44	54.106
397.65	56.410
397.87	48.087
398.08	7.190
398.29	53.252
398.51	38.806
398.72	16.327
398.94	12.941
399.15	44.560
399.37	35.838
399.58	26.638
399.80	-12.037
400.01	47.895
400.22	32.857
400.44	37.555
400.65	-9.722
400.87	56.710
401.08	34.343
401.30	20.370
401.51	30.049
401.72	46.835
401.94	43.750
402.15	17.123
402.37	8.889
402.58	26.071
402.80	8.333
403.01	18.483
403.22	28.626
403.44	41.197
403.65	29.841
403.87	19.291
404.08	46.441
404.30	8.787
404.51	27.439
404.72	15.576
404.94	21.839
405.15	29.921
405.37	24.138
405.58	9.873
405.79	24.242
406.01	19.792
406.22	21.136
406.44	22.491
406.65	21.918
406.86	16.917
407.08	20.645
407.29	24.462
407.51	15.363
407.72	16.505
407.93	11.475
408.15	14.815
408.36	5.398
408.58	30.000
408.79	19.403
409.00	8.158
409.22	21.158
409.43	12.145
409.64	14.762
409.86	7.416
410.07	21.099
410.29	17.073
410.50	8.597
410.71	10.165
410.93	25.573
411.14	16.314
411.35	17.167
411.57	11.968
411.78	15.694
412.00	17.317
412.21	18.526
412.42	13.669
412.64	3.711
412.85	8.850
413.06	5.851
413.28	14.745
413.49	17.757
413.70	14.234
413.92	15.537
414.13	4.579
414.34	12.893
414.56	17.185
414.77	6.688
414.98	10.732
415.20	10.277
415.41	13.898
415.63	11.485
415.84	25.189
416.05	13.681
416.27	17.565
416.48	13.300
416.69	8.863
416.91	22.308
417.12	18.760
417.33	23.597
417.55	23.128
417.76	20.870
417.97	15.214
418.19	27.061
418.40	17.917
418.61	23.822
418.83	29.346
419.04	23.210
419.25	26.338
419.46	25.890
419.68	28.706
419.89	24.036
420.10	31.400
420.32	24.505
420.53	32.200
420.74	32.971
420.96	31.212
421.17	31.674
421.38	39.803
421.60	40.602
421.81	37.773
422.02	38.728
422.23	37.514
422.45	41.945
422.66	42.649
422.87	44.308
423.09	52.000
423.30	50.691
423.51	48.840
423.73	52.620
423.94	56.309
424.15	50.260
424.36	49.084
424.58	51.547
424.79	53.990
425.00	57.171
425.22	56.041
425.43	55.955
425.64	60.139
425.85	56.861
426.07	64.501
426.28	64.522
426.49	66.539
426.71	64.232
426.92	69.010
427.13	62.661
427.34	69.418
427.56	74.677
427.77	66.814
427.98	69.694
428.19	69.388
428.41	72.841
428.62	75.577
428.83	70.603
429.04	69.976
429.26	75.000
429.47	75.281
429.68	73.663
429.89	76.798
430.11	75.713
430.32	73.297
430.53	82.041
430.74	79.385
430.96	80.551
431.17	79.499
431.38	78.045
431.59	81.465
431.81	78.987
432.02	73.440
432.23	74.098
432.44	79.590
432.66	78.463
432.87	76.424
433.08	79.476
433.29	80.486
433.51	81.918
433.72	76.029
433.93	74.683
434.14	76.886
434.35	74.519
434.57	70.801
434.78	70.418
434.99	76.268
435.20	74.698
435.42	66.774
435.63	68.846
435.84	72.374
436.05	70.196
436.26	66.212
436.48	71.066
436.69	71.126
436.90	66.127
437.11	66.748
437.32	70.293
437.54	68.372
437.75	70.364
437.96	64.538
438.17	64.490
438.38	65.443
438.60	68.689
438.81	66.194
439.02	60.706
439.23	65.698
439.44	62.700
439.66	62.343
439.87	62.950
440.08	62.988
440.29	62.173
440.50	63.194
440.72	61.030
440.93	59.563
441.14	60.266
441.35	63.656
441.56	58.040
441.77	60.983
441.99	55.480
442.20	56.223
442.41	58.347
442.62	54.324
442.83	58.580
443.04	55.663
443.26	56.545
443.47	56.816
443.68	53.994
443.89	51.423
444.10	50.597
444.31	55.790
444.53	50.026
444.74	50.025
444.95	48.252
445.16	48.579
445.37	51.449
445.58	46.729
445.80	42.396
446.01	46.174
446.22	38.250
446.43	39.273
446.64	36.510
446.85	36.180
447.06	37.050
447.28	33.882
447.49	31.513
447.70	32.332
447.91	29.069
448.12	25.255
448.33	24.415
448.54	26.534
448.76	21.998
448.97	18.247
449.18	20.285
449.39	19.636
449.60	16.299
449.81	16.462
450.02	15.132
450.23	15.363
450.45	13.628
450.66	12.157
450.87	11.853
451.08	12.113
451.29	12.028
451.50	11.406
451.71	6.552
451.92	6.555
452.13	8.966
452.35	9.435
452.56	4.334
452.77	5.066
452.98	5.683
453.19	5.550
453.40	4.302
453.61	6.846
453.82	3.934
454.03	5.148
454.25	6.145
454.46	3.370
454.67	3.008
454.88	-0.166
455.09	4.211
455.30	2.203
455.51	3.888
455.72	2.707
455.93	4.434
456.14	6.765
456.35	1.021
456.56	3.900
456.78	4.314
456.99	4.844
457.20	4.112
457.41	3.765
457.62	0.959
457.83	3.926
458.04	2.241
458.25	0.456
458.46	2.913
458.67	3.780
458.88	2.199
459.09	1.913
459.30	3.186
459.51	3.222
459.73	3.505
459.94	4.563
460.15	5.069
460.36	2.505
460.57	3.188
460.78	-0.139
460.99	3.365
461.20	1.776
461.41	4.993
461.62	0.530
461.83	1.690
462.04	2.952
462.25	2.784
462.46	2.708
462.67	2.256
462.88	4.656
463.09	4.584
463.30	2.758
463.51	2.866
463.72	4.588
463.93	1.739
464.15	-0.862
464.36	1.284
464.57	3.228
464.78	4.778
464.99	2.602
465.20	3.538
465.41	3.510
465.62	3.279
465.83	3.451
466.04	1.438
466.25	3.379
466.46	2.786
466.67	1.619
466.88	2.690
467.09	1.781
467.30	1.552
467.51	2.587
467.72	0.803
467.93	0.443
468.14	2.742
468.35	2.676
468.56	2.888
468.77	2.014
468.98	2.054
469.19	3.268
469.40	1.592
469.61	2.536
469.82	2.236
470.03	2.016
470.24	1.352
470.45	3.363
470.66	1.583
470.87	1.803
471.08	1.827
471.29	1.740
471.50	3.994
471.71	1.524
471.92	2.503
472.13	1.747
472.34	1.109
472.55	2.570
472.76	2.496
472.97	2.085
473.18	1.621
473.39	2.965
473.60	2.337
473.81	2.426
474.01	2.496
474.22	-0.653
474.43	1.956
474.64	2.350
474.85	2.137
475.06	2.510
475.27	1.508
475.48	1.698
475.69	2.401
475.90	1.632
476.11	1.342
476.32	2.941
476.53	0.675
476.74	1.766
476.95	1.867
477.16	2.988
477.37	1.260
477.58	2.983
477.79	2.287
478.00	1.337
478.21	3.047
478.41	2.087
478.62	1.288
478.83	2.793
479.04	1.950
479.25	2.390
479.46	2.366
479.67	1.498
479.88	1.635
480.09	2.282
480.30	0.960
480.51	2.903
480.72	2.874
480.93	1.609
481.14	1.736
481.34	1.222
481.55	2.042
481.76	1.166
481.97	2.770
482.18	1.764
482.39	2.238
482.60	1.065
482.81	1.877
483.02	1.863
483.23	1.923
483.44	1.806
483.65	1.064
483.85	1.856
484.06	2.086
484.27	1.755
484.48	1.758
484.69	2.045
484.90	2.529
485.11	1.012
485.32	2.585
485.53	2.194
485.73	2.081
485.94	2.333
486.15	2.695
486.36	1.968
486.57	2.562
486.78	3.350
486.99	3.500
487.20	3.537
487.41	4.600
487.61	3.732
487.82	4.403
488.03	4.894
488.24	5.888
488.45	5.321
488.66	6.246
488.87	7.535
489.08	7.404
489.28	7.997
489.49	7.618
489.70	9.591
489.91	9.828
490.12	10.552
490.33	11.127
490.54	12.624
490.74	13.201
490.95	13.487
491.16	14.069
491.37	15.891
491.58	16.174
491.79	17.634
492.00	18.135
492.20	18.415
492.41	20.052
492.62	21.269
492.83	21.516
493.04	22.704
493.25	25.051
493.45	25.983
493.66	26.029
493.87	27.005
494.08	27.518
494.29	29.388
494.50	29.659
494.70	31.935
494.91	32.637
495.12	34.246
495.33	34.798
495.54	36.978
495.75	37.889
495.95	38.961
496.16	40.347
496.37	41.376
496.58	42.459
496.79	43.923
496.99	44.955
497.20	46.140
497.41	49.090
497.62	47.832
497.83	49.075
498.04	49.357
498.24	50.000
498.45	51.831
498.66	51.506
498.87	52.744
499.08	54.641
499.28	53.318
499.49	53.784
499.70	55.365
499.91	55.614
500.12	58.312
500.32	56.831
500.53	58.230
500.74	58.946
500.95	60.492
501.15	60.583
501.36	62.470
501.57	62.393
501.78	65.862
501.99	66.298
502.19	65.800
502.40	66.963
502.61	69.020
502.82	69.899
503.02	70.305
503.23	70.724
503.44	70.724
503.65	72.854
503.86	74.677
504.06	72.500
504.27	73.006
504.48	72.916
504.69	74.254
504.89	74.539
505.10	74.906
505.31	74.218
505.52	74.489
505.72	76.532
505.93	75.819
506.14	73.877
506.35	76.633
506.55	75.901
506.76	76.005
506.97	76.684
507.18	76.089
507.38	75.369
507.59	73.969
507.80	71.924
508.01	72.539
508.21	72.474
508.42	74.379
508.63	71.954
508.84	70.607
509.04	70.367
509.25	68.310
509.46	68.378
509.67	70.056
509.87	68.203
510.08	68.110
510.29	65.374
510.49	64.950
510.70	63.801
510.91	63.213
511.12	62.128
511.32	61.356
511.53	62.085
511.74	60.998
511.94	61.706
512.15	60.409
512.36	60.187
512.57	57.916
512.77	58.504
512.98	57.069
513.19	57.614
513.39	57.443
513.60	55.844
513.81	56.227
514.01	54.986
514.22	55.648
514.43	54.788
514.64	53.737
514.84	52.839
515.05	52.260
515.26	51.168
515.46	49.996
515.67	49.361
515.88	47.593
516.08	47.035
516.29	45.095
516.50	44.421
516.70	41.069
516.91	40.428
517.12	38.398
517.32	36.293
517.53	35.525
517.74	35.320
517.95	32.307
518.15	31.941
518.36	29.483
518.57	28.012
518.77	25.971
518.98	25.106
519.19	23.022
519.39	22.471
519.60	21.000
519.80	20.482
520.01	19.050
520.22	17.599
520.42	16.265
520.63	15.045
520.84	14.068
521.04	12.541
521.25	12.010
521.46	10.911
521.66	9.645
521.87	9.283
522.08	8.024
522.28	7.666
522.49	6.465
522.70	5.904
522.90	4.948
523.11	4.259
523.31	3.801
523.52	2.964
523.73	2.902
523.93	2.837
524.14	2.008
524.35	1.566
524.55	1.630
524.76	1.075
524.97	1.625
525.17	1.107
525.38	1.320
525.58	1.218
525.79	1.061
526.00	0.996
526.20	0.910
526.41	0.986
526.61	0.950
526.82	0.630
527.03	0.978
527.23	1.322
527.44	0.579
527.64	0.312
527.85	0.715
528.06	0.773
528.26	1.002
528.47	0.753
528.68	0.930
528.88	1.002
529.09	1.002
529.29	0.792
529.50	0.775
529.70	0.739
529.91	0.856
530.12	0.782
530.32	0.992
530.53	1.046
530.73	0.779
530.94	0.583
531.15	0.831
531.35	1.299
531.56	0.643
531.76	1.019
531.97	0.999
532.17	0.517
532.38	0.994
532.59	0.534
532.79	0.946
533.00	1.092
533.20	0.986
533.41	0.867
533.61	0.540
533.82	0.972
534.03	0.418
534.23	0.599
534.44	0.465
534.64	0.768
534.85	0.832
535.05	0.776
535.26	0.651
535.46	0.906
535.67	0.567
535.88	1.109
536.08	0.732
536.29	1.102
536.49	0.836
536.70	0.946
536.90	0.922
537.11	0.896
537.31	0.611
537.52	1.115
537.72	0.870
537.93	0.693
538.13	0.541
538.34	0.579
538.55	0.922
538.75	0.624
538.96	0.737
539.16	0.785
539.37	1.136
539.57	0.763
539.78	0.893
539.98	0.729
540.19	0.712
540.39	0.949
540.60	0.710
540.80	0.992
541.01	0.712
541.21	0.773
541.42	0.741
541.62	0.807
541.83	0.781
542.03	0.840
542.24	0.713
542.44	1.071
542.65	0.874
542.85	0.900
543.06	0.484
543.26	1.069
543.47	0.561
543.67	0.580
543.88	1.031
544.08	0.833
544.29	1.590
544.49	1.217
544.70	0.759
544.90	0.975
545.11	0.696
545.31	1.082
545.52	0.870
545.72	1.105
545.93	1.519
546.13	1.479
546.34	1.233
546.54	1.176
546.75	1.545
546.95	1.667
547.15	1.592
547.36	1.257
547.56	2.100
547.77	2.610
547.97	2.203
548.18	2.844
548.38	3.101
548.59	2.797
548.79	2.843
549.00	3.575
549.20	4.021
549.41	4.114
549.61	4.549
549.81	4.532
550.02	5.265
550.22	5.662
550.43	6.165
550.63	6.553
550.84	8.084
551.04	8.073
551.25	9.236
551.45	9.419
551.65	10.827
551.86	11.255
552.06	12.687
552.27	13.434
552.47	14.041
552.68	15.881
552.88	15.931
553.08	17.306
553.29	17.910
553.49	19.357
553.70	20.974
553.90	21.441
554.11	23.020
554.31	23.346
554.51	24.361
554.72	25.506
554.92	27.161
555.13	28.535
555.33	29.705
555.53	30.419
555.74	31.520
555.94	33.853
556.15	34.988
556.35	36.135
556.56	37.634
556.76	39.237
556.96	39.309
557.17	40.926
557.37	42.887
557.58	44.298
557.78	45.338
557.98	46.429
558.19	48.872
558.39	49.138
558.59	51.217
558.80	51.902
559.00	54.844
559.21	55.927
559.41	56.643
559.61	58.269
559.82	60.986
560.02	62.639
560.23	63.081
560.43	64.461
560.63	66.334
560.84	67.563
561.04	69.245
561.24	69.533
561.45	71.397
561.65	71.957
561.85	73.931
562.06	73.836
562.26	76.299
562.47	76.906
562.67	77.133
562.87	77.914
563.08	78.656
563.28	79.576
563.48	79.539
563.69	80.639
563.89	81.218
564.09	82.815
564.30	84.442
564.50	83.873
564.70	83.949
564.91	84.945
565.11	84.765
565.31	85.126
565.52	86.401
565.72	85.891
565.92	85.019
566.13	86.334
566.33	87.000
566.53	86.736
566.74	86.927
566.94	87.741
567.14	88.483
567.35	88.778
567.55	87.848
567.75	88.721
567.96	88.586
568.16	88.670
568.36	89.225
568.57	87.946
568.77	87.935
568.97	88.005
569.18	87.961
569.38	88.490
569.58	87.549
569.79	88.704
569.99	87.881
570.19	86.510
570.39	86.589
570.60	85.684
570.80	87.375
571.00	87.382
571.21	86.569
571.41	86.584
571.61	85.343
571.82	85.122
572.02	85.410
572.22	84.698
572.42	86.010
572.63	84.706
572.83	86.324
573.03	85.220
573.24	84.374
573.44	83.780
573.64	83.242
573.84	83.630
574.05	84.636
574.25	84.140
574.45	83.316
574.66	83.750
574.86	84.673
575.06	84.195
575.26	84.094
575.47	82.900
575.67	83.138
575.87	83.467
576.07	82.768
576.28	83.584
576.48	82.813
576.68	83.040
576.88	82.918
577.09	83.842
577.29	82.668
577.49	81.745
577.69	83.300
577.90	81.097
578.10	81.677
578.30	81.146
578.50	81.983
578.71	81.139
578.91	79.887
579.11	82.227
579.31	82.481
579.52	82.189
579.72	81.524
579.92	81.726
580.12	79.881
580.33	81.189
580.53	80.660
580.73	80.112
580.93	80.264
581.13	80.915
581.34	80.509
581.54	80.549
581.74	80.737
581.94	81.428
582.15	80.962
582.35	82.115
582.55	81.856
582.75	81.670
582.95	82.791
583.16	82.670
583.36	83.542
583.56	83.210
583.76	83.994
583.96	83.201
584.17	83.709
584.37	84.285
584.57	84.862
584.77	84.061
584.97	84.845
585.18	84.381
585.38	85.160
585.58	84.363
585.78	85.238
585.98	84.965
586.19	85.371
586.39	84.275
586.59	85.234
586.79	85.730
586.99	84.655
587.20	85.150
587.40	85.977
587.60	86.728
587.80	85.537
588.00	86.014
588.20	86.747
588.41	85.695
588.61	85.258
588.81	85.081
589.01	85.602
589.21	85.190
589.41	83.206
589.62	84.480
589.82	83.977
590.02	82.780
590.22	83.671
590.42	82.919
590.62	82.579
590.83	82.431
591.03	81.767
591.23	82.378
591.43	83.817
591.63	82.275
591.83	83.594
592.03	83.359
592.24	82.567
592.44	81.609
592.64	80.250
592.84	80.088
593.04	79.837
593.24	79.295
593.44	77.949
593.65	77.723
593.85	77.609
594.05	76.769
594.25	76.846
594.45	74.690
594.65	74.940
594.85	73.315
595.06	74.295
595.26	72.308
595.46	71.544
595.66	72.796
595.86	71.203
596.06	70.153
596.26	68.795
596.46	68.970
596.66	67.996
596.87	67.426
597.07	66.804
597.27	65.852
597.47	65.899
597.67	65.204
597.87	64.552
598.07	64.592
598.27	63.499
598.47	63.793
598.67	62.853
598.88	63.084
599.08	61.335
599.28	62.005
599.48	60.365
599.68	60.370
599.88	59.411
600.08	59.743
600.28	59.600
600.48	58.291
600.68	58.183
600.88	58.783
601.09	57.433
601.29	56.634
601.49	55.494
601.69	55.014
601.89	54.600
602.09	54.182
602.29	52.481
602.49	52.363
602.69	52.668
602.89	52.650
603.09	51.689
603.29	51.221
603.49	50.626
603.69	50.300
603.90	49.402
604.10	48.997
604.30	49.243
604.50	47.971
604.70	48.012
604.90	48.035
605.10	46.359
605.30	46.702
605.50	45.602
605.70	46.283
605.90	45.859
606.10	44.729
606.30	44.823
606.50	43.784
606.70	44.079
606.90	43.617
607.10	43.611
607.30	42.111
607.50	42.372
607.70	41.097
607.90	40.481
608.10	39.669
608.30	38.916
608.50	37.831
608.70	37.388
608.90	36.567
609.11	35.073
609.31	34.864
609.51	34.043
609.71	33.093
609.91	31.528
610.11	31.125
610.31	30.195
610.51	29.177
610.71	27.957
610.91	26.821
611.11	25.508
611.31	25.716
611.51	23.938
611.71	23.139
611.91	22.075
612.11	20.993
612.31	20.331
612.51	19.142
612.71	18.208
612.91	17.761
613.11	16.816
613.31	16.296
613.51	15.149
613.71	14.358
613.91	13.641
614.11	12.893
614.31	12.466
614.50	11.917
614.70	11.316
614.90	10.292
615.10	9.653
615.30	8.627
615.50	8.575
615.70	7.656
615.90	7.030
616.10	6.778
616.30	6.244
616.50	5.585
616.70	5.363
616.90	4.921
617.10	4.498
617.30	4.131
617.50	3.948
617.70	3.517
617.90	3.119
618.10	3.074
618.30	2.772
618.50	2.451
618.70	1.937
618.90	1.793
619.10	1.671
619.30	1.481
619.49	1.273
619.69	1.192
619.89	1.034
620.09	0.845
620.29	1.056
620.49	0.840
620.69	0.524
620.89	0.806
621.09	0.741
621.29	0.594
621.49	0.562
621.69	0.431
621.89	0.694
622.09	0.529
622.29	0.497
622.48	0.354
622.68	0.387
622.88	0.464
623.08	0.472
623.28	0.411
623.48	0.229
623.68	0.398
623.88	0.274
624.08	0.433
624.28	0.468
624.48	0.378
624.67	0.205
624.87	0.164
625.07	0.340
625.27	0.386
625.47	0.422
625.67	0.328
625.87	0.498
626.07	0.331
626.27	0.345
626.47	0.329
626.66	0.426
626.86	0.262
627.06	0.253
627.26	0.342
627.46	0.278
627.66	0.236
627.86	0.422
628.06	0.532
628.25	0.337
628.45	0.589
628.65	0.440
628.85	0.049
629.05	0.232
629.25	0.187
629.45	0.215
629.65	0.386
629.84	0.468
630.04	0.187
630.24	0.539
630.44	0.254
630.64	0.588
630.84	0.365
631.04	0.549
631.23	0.370
631.43	0.329
631.63	0.174
631.83	0.358
632.03	0.329
632.23	0.317
632.42	0.227
632.62	0.304
632.82	0.273
633.02	0.283
633.22	0.396
633.42	0.249
633.62	0.392
633.81	0.495
634.01	0.098
634.21	0.160
634.41	0.220
634.61	0.299
634.80	0.149
635.00	0.036
635.20	0.278
635.40	0.175
635.60	0.247
635.80	0.480
635.99	0.088
636.19	0.281
636.39	0.211
636.59	0.301
636.79	0.328
636.98	0.245
637.18	0.302
637.38	0.198
637.58	0.354
637.78	0.158
637.97	0.235
638.17	0.144
638.37	0.190
638.57	0.170
638.77	0.476
638.96	0.151
639.16	0.152
639.36	0.333
639.56	0.139
639.76	0.251
639.95	0.302
640.15	0.280
640.35	0.454
640.55	0.320
640.75	0.000
640.94	0.218
641.14	0.168
641.34	0.148
641.54	0.274
641.73	0.421
641.93	0.206
642.13	0.064
642.33	0.100
642.53	0.215
642.72	0.088
642.92	0.216
643.12	-0.020
643.32	0.340
643.51	0.331
643.71	-0.020
643.91	0.119
644.11	0.112
644.30	0.190
644.50	0.059
644.70	0.135
644.90	0.257
645.09	0.194
645.29	0.245
645.49	0.052
645.69	0.222
645.88	0.107
646.08	0.154
646.28	0.311
646.48	0.254
646.67	0.238
646.87	0.284
647.07	0.250
647.26	0.239
647.46	0.040
647.66	0.146
647.86	0.059
648.05	0.477
648.25	0.434
648.45	0.310
648.65	0.036
648.84	0.231
649.04	0.110
649.24	0.118
649.43	0.407
649.63	0.315
649.83	0.396
650.03	0.390
650.22	-0.008
650.42	0.270
650.62	0.387
650.81	0.051
651.01	0.024
651.21	0.450
651.40	0.296
651.60	0.094
651.80	0.004
652.00	0.012
652.19	0.102
652.39	0.103
652.59	0.233
652.78	0.161
652.98	0.225
653.18	0.102
653.37	0.229
653.57	0.204
653.77	0.329
653.96	0.122
654.16	0.335
654.36	0.307
654.55	0.132
654.75	0.384
654.95	0.078
655.14	0.333
655.34	0.265
655.54	0.086
655.73	0.099
655.93	0.039
656.13	0.036
656.32	0.118
656.52	0.389
656.72	0.236
656.91	0.282
657.11	0.160
657.31	0.197
657.50	0.074
657.70	0.133
657.90	0.222
658.09	0.016
658.29	0.384
658.49	0.161
658.68	0.156
658.88	0.296
659.07	0.282
659.27	0.417
659.47	0.164
659.66	0.239
659.86	0.304
660.06	0.328
660.25	0.328
660.45	0.254
660.64	0.187
660.84	0.366
661.04	0.218
661.23	0.250
661.43	0.164
661.63	0.200
661.82	0.287
662.02	0.205
662.21	0.032
662.41	0.206
662.61	0.338
662.80	0.293
663.00	0.394
663.19	0.344
663.39	0.137
663.59	0.199
663.78	0.192
663.98	0.248
664.17	0.149
664.37	0.356
664.57	0.246
664.76	0.330
664.96	0.252
665.15	0.392
665.35	-0.008
665.55	0.176
665.74	0.019
665.94	0.121
666.13	0.093
666.33	0.305
666.53	0.105
666.72	0.204
666.92	0.359
667.11	0.322
667.31	0.274
667.50	0.043
667.70	0.063
667.90	0.356
668.09	0.155
668.29	0.106
668.48	0.195
668.68	0.192
668.87	0.250
669.07	0.203
669.26	0.288
669.46	0.203
669.66	0.253
669.85	0.166
670.05	0.368
670.24	0.130
670.44	0.329
670.63	0.331
670.83	0.361
671.02	0.217
671.22	0.285
671.42	0.145
671.61	0.254
671.81	0.266
672.00	0.471
672.20	0.555
672.39	0.322
672.59	0.412
672.78	0.537
672.98	0.175
673.17	0.185
673.37	0.103
673.56	0.430
673.76	0.304
673.95	0.426
674.15	0.200
674.34	0.086
674.54	0.218
674.73	0.272
674.93	0.320
675.13	0.384
675.32	0.274
675.52	0.337
675.71	0.153
675.91	0.188
676.10	0.172
676.30	0.179
676.49	0.295
676.69	0.221
676.88	0.137
677.08	0.154
677.27	0.158
677.47	0.432
677.66	0.215
677.86	0.365
678.05	0.289
678.24	0.358
678.44	0.082
678.63	0.323
678.83	0.369
679.02	0.274
679.22	0.189
679.41	0.350
679.61	-0.024
679.80	0.408
680.00	0.074
680.19	0.248
680.39	0.332
680.58	0.156
680.78	0.524
680.97	0.176
681.17	0.146
681.36	0.252
681.56	0.486
681.75	0.149
681.94	0.358
682.14	0.323
682.33	0.028
682.53	0.206
682.72	0.275
682.92	0.197
683.11	0.121
683.31	0.300
683.50	0.227
683.69	0.012
683.89	0.177
684.08	0.370
684.28	0.592
684.47	0.190
684.67	0.143
684.86	0.198
685.06	0.302
685.25	0.075
685.44	0.236
685.64	0.232
685.83	0.252
686.03	0.320
686.22	0.311
686.42	0.238
686.61	0.309
686.80	0.080
687.00	0.347
687.19	0.225
687.39	0.396
687.58	0.004
687.77	0.238
687.97	0.406
688.16	0.265
688.36	0.028
688.55	0.148
688.74	0.320
688.94	0.239
689.13	0.270
689.33	0.347
689.52	0.127
689.71	0.297
689.91	0.211
690.10	0.447
690.30	0.183
690.49	0.216
690.68	0.324
690.88	0.363
691.07	-0.012
691.27	0.488
691.46	0.237
691.65	0.294
691.85	0.344
692.04	0.227
692.23	0.072
692.43	0.395
692.62	0.559
692.82	0.486
693.01	0.410
693.20	0.325
693.40	0.402
693.59	0.396
693.78	0.389
693.98	0.108
694.17	0.445
694.36	0.259
694.56	0.438
694.75	0.264
694.94	0.331
695.14	0.461
695.33	0.274
695.53	0.409
695.72	0.294
695.91	0.384
696.11	0.263
696.30	0.459
696.49	0.141
696.69	0.286
696.88	0.471
697.07	0.061
697.27	0.381
697.46	0.406
697.65	0.517
697.85	0.258
698.04	0.282
698.23	0.419
698.43	0.312
698.62	0.369
698.81	0.383
699.01	0.409
699.20	0.480
699.39	0.238
699.58	0.342
699.78	0.330
699.97	0.413
700.16	0.287
700.36	0.611
700.55	0.285
700.74	0.364
700.94	0.519
701.13	0.438
701.32	0.327
701.52	0.203
701.71	0.546
701.90	0.408
702.09	0.167
702.29	0.492
702.48	0.290
702.67	0.414
702.87	0.338
703.06	0.479
703.25	0.703
703.44	0.398
703.64	0.472
703.83	0.430
704.02	0.558
704.22	0.365
704.41	0.483
704.60	0.347
704.79	0.562
704.99	0.253
705.18	0.237
705.37	0.238
705.56	0.293
705.76	0.573
705.95	0.671
706.14	0.098
706.33	0.449
706.53	0.329
706.72	0.486
706.91	0.247
707.11	0.348
707.30	0.385
707.49	0.737
707.68	0.381
707.88	0.443
708.07	0.396
708.26	0.422
708.45	0.345
708.64	0.552
708.84	0.542
709.03	0.783
709.22	0.306
709.41	0.426
709.61	0.464
709.80	0.508
709.99	0.601
710.18	0.139
710.38	0.564
710.57	0.289
710.76	0.254
710.95	0.530
711.14	0.708
711.34	0.502
711.53	0.411
711.72	0.475
711.91	0.584
712.11	0.517
712.30	0.465
712.49	0.597
712.68	0.512
712.87	0.429
713.07	0.517
713.26	0.416
713.45	0.942
713.64	0.665
713.83	0.344
714.03	0.615
714.22	0.433
714.41	0.628
714.60	0.449
714.79	0.387
714.99	0.737
715.18	0.442
715.37	0.320
715.56	0.579
715.75	0.371
715.94	0.642
716.14	0.201
716.33	0.478
716.52	0.250
716.71	0.580
716.90	0.580
717.10	0.425
717.29	0.522
717.48	0.469
717.67	0.271
717.86	0.569
718.05	0.228
718.24	0.442
718.44	0.611
718.63	0.549
718.82	0.874
719.01	0.416
719.20	0.551
719.39	0.283
719.59	0.577
719.78	0.477
719.97	0.624
720.16	0.518
720.35	0.386
720.54	0.546
720.73	0.552
720.93	0.657
721.12	0.712
721.31	0.563
721.50	0.508
721.69	0.508
721.88	0.627
722.07	0.463
722.27	0.622
722.46	0.651
722.65	0.663
722.84	0.608
723.03	0.539
723.22	0.393
723.41	0.575
723.60	0.800
723.79	0.617
723.99	0.640
724.18	0.802
724.37	0.570
724.56	0.660
724.75	0.370
724.94	0.628
725.13	0.707
725.32	0.758
725.51	0.701
725.71	0.567
725.90	0.382
726.09	0.546
726.28	0.530
726.47	0.640
726.66	0.640
726.85	0.517
727.04	0.498
727.23	0.422
727.42	0.462
727.61	0.610
727.81	0.649
728.00	0.378
728.19	0.709
728.38	0.474
728.57	0.440
728.76	0.827
728.95	0.644
729.14	0.478
729.33	0.609
729.52	0.674
729.71	0.923
729.90	0.421
730.09	0.695
730.28	0.747
730.48	0.700
730.67	0.704
730.86	0.843
731.05	0.668
731.24	0.721
731.43	0.536
731.62	0.810
731.81	0.672
732.00	0.661
732.19	0.662
732.38	0.487
732.57	0.711
732.76	0.651
732.95	1.004
733.14	0.639
733.33	0.943
733.52	0.725
733.71	0.905
733.90	0.679
734.09	0.644
734.28	0.706
734.47	0.611
734.66	0.619
734.85	0.667
735.04	0.477
735.23	0.566
735.42	0.699
735.61	0.600
735.81	0.971
736.00	0.568
736.19	0.623
736.38	0.658
736.57	0.497
736.76	0.760
736.95	0.530
737.14	0.874
737.33	0.789
737.52	0.845
737.71	0.837
737.90	0.882
738.09	0.805
738.28	0.680
738.47	0.633
738.66	0.757
738.85	0.665
739.04	0.891
739.22	0.826
739.41	0.796
739.60	0.718
739.79	0.914
739.98	0.804
740.17	0.802
740.36	0.833
740.55	0.800
740.74	0.718
740.93	0.773
741.12	0.744
741.31	0.674
741.50	0.845
741.69	0.596
741.88	0.624
742.07	0.465
742.26	0.851
742.45	0.837
742.64	0.589
742.83	0.699
743.02	0.642
743.21	0.748
743.40	0.723
743.59	0.651
743.78	0.610
743.97	1.240
744.16	0.859
744.34	0.629
744.53	0.845
744.72	1.216
744.91	0.528
745.10	0.693
745.29	0.596
745.48	0.832
745.67	0.878
745.86	1.012
746.05	0.769
746.24	0.991
746.43	0.858
746.62	1.308
746.81	0.675
747.00	0.973
747.18	0.927
747.37	1.228
747.56	0.632
747.75	0.936
747.94	0.724
748.13	1.041
748.32	0.859
748.51	0.753
748.70	0.999
748.89	0.643
749.08	0.819
749.26	0.661
749.45	1.348
749.64	0.790
749.83	0.830
750.02	1.203
750.21	0.969
750.40	0.966
750.59	0.952
750.78	0.843
750.96	0.780
751.15	0.853
751.34	0.862
751.53	1.094
751.72	1.048
751.91	0.519
752.10	0.692
752.29	1.049
752.47	1.033
752.66	0.824
752.85	0.875
753.04	0.804
753.23	0.668
753.42	0.522
753.61	0.870
753.80	1.214
753.98	0.772
754.17	1.088
754.36	1.015
754.55	0.598
754.74	0.799
754.93	1.009
755.12	1.077
755.30	0.977
755.49	1.020
755.68	0.947
755.87	0.922
756.06	0.880
756.25	0.780
756.43	0.946
756.62	0.919
756.81	1.112
757.00	0.854
757.19	0.717
757.38	0.873
757.56	1.232
757.75	0.960
757.94	0.487
758.13	0.757
758.32	0.686
758.51	0.784
758.69	0.945
758.88	0.737
759.07	1.359
759.26	0.806
759.45	0.879
759.63	1.278
759.82	1.094
760.01	0.708
760.20	0.817
760.39	0.811
760.57	0.908
760.76	1.145
760.95	0.958
761.14	0.871
761.33	1.276
761.51	1.107
761.70	0.833
761.89	1.043
762.08	1.055
762.27	1.080
762.45	0.806
762.64	0.974
762.83	1.077
763.02	0.890
763.21	0.707
763.39	0.938
763.58	0.753
763.77	0.856
763.96	0.487
764.14	1.096
764.33	0.851
764.52	1.141
764.71	1.014
764.89	1.029
765.08	1.215
765.27	1.038
765.46	0.970
765.65	1.050
765.83	1.030
766.02	1.108
766.21	1.022
766.40	0.750
766.58	1.287
766.77	1.014
766.96	0.929
767.15	0.795
767.33	1.184
767.52	1.161
767.71	1.016
767.90	0.791
768.08	1.143
768.27	1.051
768.46	0.921
768.64	0.947
768.83	0.891
769.02	0.673
769.21	1.190
769.39	1.123
769.58	1.438
769.77	1.232
769.96	0.566
770.14	1.332
770.33	0.996
770.52	1.242
770.70	1.043
770.89	0.926
771.08	1.144
771.27	1.200
771.45	0.928
771.64	1.121
771.83	1.493
772.01	0.975
772.20	1.173
772.39	0.989
772.57	1.109
772.76	1.210
772.95	0.880
773.14	1.030
773.32	0.889
773.51	1.125
773.70	0.978
773.88	1.077
774.07	1.022
774.26	1.319
774.44	1.018
774.63	1.054
774.82	0.871
775.00	1.136
775.19	1.072
775.38	1.198
775.56	0.733
775.75	1.441
775.94	0.748
776.12	0.677
776.31	1.132
776.50	1.178
776.68	1.140
776.87	0.912
777.06	1.031
777.24	0.977
777.43	1.541
777.62	1.106
777.80	1.078
777.99	1.088
778.18	1.281
778.36	1.262
778.55	1.180
778.74	1.362
778.92	1.031
779.11	0.965
779.29	1.071
779.48	1.253
779.67	0.912
779.85	1.394
780.04	1.120
780.23	1.088
780.41	1.474
780.60	1.033
780.79	1.047
780.97	1.225
781.16	1.283
781.34	1.269
781.53	1.562
781.72	1.121
781.90	1.047
782.09	1.090
782.28	1.305
782.46	1.374
782.65	1.238
782.83	1.296
783.02	1.122
783.21	0.716
783.39	1.382
783.58	1.140
783.76	1.091
783.95	1.386
784.14	1.167
784.32	1.071
784.51	1.382
784.69	1.066
784.88	1.311
785.06	1.071
785.25	1.217
785.44	1.496
785.62	0.983
785.81	1.139
785.99	1.284
786.18	0.751
786.37	1.333
786.55	0.961
786.74	1.661
786.92	1.451
787.11	0.841
787.29	0.964
787.48	1.334
787.67	1.187
787.85	1.209
788.04	0.985
788.22	1.367
788.41	1.301
788.59	1.573
788.78	1.130
788.96	1.395
789.15	1.388
789.34	1.322
789.52	0.961
789.71	1.410
789.89	1.531
790.08	1.055
790.26	0.889
790.45	1.215
790.63	1.031
790.82	1.173
791.00	1.365
791.19	1.424
791.38	1.110
791.56	1.267
791.75	1.141
791.93	0.781
792.12	1.241
792.30	1.502
792.49	1.247
792.67	1.292
792.86	1.008
793.04	1.671
793.23	1.078
793.41	1.429
793.60	1.566
793.78	1.474
793.97	1.365
794.15	1.335
794.34	1.296
794.52	1.201
794.71	1.600
794.89	1.509
795.08	1.715
795.26	1.182
795.45	1.294
795.63	1.450
795.82	1.433
796.00	1.070
796.19	0.609
796.37	1.952
796.56	1.176
796.74	1.281
796.93	1.631
797.11	1.397
797.30	1.275
797.48	1.294
797.67	1.534
797.85	1.787
798.04	1.432
798.22	1.481
798.41	1.396
798.59	1.548
798.77	1.274
798.96	1.266
799.14	1.580
799.33	1.422
799.51	1.123
799.70	1.352
799.88	1.348
800.07	1.472
800.25	1.230
800.44	1.136
800.62	1.348
800.80	1.542
800.99	2.004
801.17	1.335
801.36	1.317
801.54	1.169
801.73	1.186
801.91	1.140
802.10	1.472
802.28	1.355
802.46	1.495
802.65	1.716
802.83	1.835
803.02	1.795
803.20	1.329
803.39	1.347
803.57	1.520
803.75	1.654
803.94	2.001
804.12	1.476
804.31	1.305
804.49	1.954
804.67	1.489
804.86	1.439
805.04	1.719
805.23	1.657
805.41	1.551
805.59	1.547
805.78	1.237
805.96	1.442
806.15	1.753
806.33	1.431
806.51	1.250
806.70	1.663
806.88	1.451
807.07	1.343
807.25	1.759
807.43	1.399
807.62	1.635
807.80	1.547
807.99	1.606
808.17	1.781
808.35	1.478
808.54	1.817
808.72	1.534
808.90	1.739
809.09	1.509
809.27	1.627
809.46	1.856
809.64	1.442
809.82	1.804
810.01	1.431
810.19	1.683
810.37	1.913
810.56	1.685
810.74	1.771
810.92	1.512
811.11	1.927
811.29	1.669
811.48	1.454
811.66	1.370
811.84	1.860
812.03	1.266
812.21	1.241
812.39	1.639
812.58	0.942
812.76	1.783
812.94	1.617
813.13	1.314
813.31	1.347
813.49	1.595
813.68	1.279
813.86	1.781
814.04	1.408
814.23	1.879
814.41	1.946
814.59	1.673
814.78	1.519
814.96	1.782
815.14	1.367
815.33	1.418
815.51	1.788
815.69	1.690
815.87	0.877
816.06	1.866
816.24	1.786
816.42	1.276
816.61	1.243
816.79	1.669
816.97	1.868
817.16	1.606
817.34	1.308
817.52	1.871
817.70	1.471
817.89	1.337
818.07	1.682
818.25	1.835
818.44	1.979
818.62	1.760
818.80	1.577
818.98	1.561
819.17	2.228
819.35	1.529
819.53	1.618
819.72	1.678
819.90	1.939
820.08	1.390
820.26	1.298
820.45	1.779
820.63	1.619
820.81	1.571
820.99	1.559
821.18	1.496
821.36	2.116
821.54	1.757
821.73	2.100
821.91	1.588
822.09	1.518
822.27	2.137
822.46	2.143
822.64	1.773
822.82	2.076
823.00	1.211
823.19	2.219
823.37	2.411
823.55	1.526
823.73	1.675
823.91	1.602
824.10	1.623
824.28	1.687
824.46	1.727
824.64	1.313
824.83	1.654
825.01	1.687
825.19	1.646
825.37	1.446
825.56	1.946
825.74	1.823
825.92	1.838
826.10	1.240
826.28	1.839
826.47	2.114
826.65	1.654
826.83	2.193
827.01	1.793
827.19	1.684
827.38	2.261
827.56	2.368
827.74	1.822
827.92	2.135
828.10	2.461
828.29	1.735
828.47	1.713
828.65	1.633
828.83	1.939
829.01	1.637
829.20	1.487
829.38	2.014
829.56	1.719
829.74	1.490
829.92	1.912
830.10	2.039
830.29	2.166
830.47	2.155
830.65	1.211
830.83	1.874
831.01	1.357
831.20	1.889
831.38	1.763
831.56	2.247
831.74	1.771
831.92	1.925
832.10	1.599
832.29	2.060
832.47	1.877
832.65	1.699
832.83	1.577
833.01	1.363
833.19	1.711
833.37	1.985
833.56	1.801
833.74	1.793
833.92	2.019
834.10	1.841
834.28	0.988
834.46	2.430
834.64	1.788
834.83	1.432
835.01	2.409
835.19	2.377
835.37	1.493
835.55	1.248
835.73	1.600
835.91	2.053
836.09	1.928
836.28	2.212
836.46	1.442
836.64	2.136
836.82	1.638
837.00	2.353
837.18	2.123
837.36	2.228
837.54	1.780
837.72	2.099
837.91	2.106
838.09	1.619
838.27	1.922
838.45	2.044
838.63	1.761
838.81	1.731
838.99	1.390
839.17	1.655
839.35	1.948
839.53	1.605
839.72	2.053
839.90	1.767
840.08	2.137
840.26	2.050
840.44	2.224
840.62	1.828
840.80	1.872
840.98	1.950
841.16	1.730
841.34	1.579
841.52	2.109
841.70	1.610
841.89	2.067
842.07	2.248
842.25	2.745
842.43	1.629
842.61	2.053
842.79	2.220
842.97	1.339
843.15	2.348
843.33	2.248
843.51	2.191
843.69	2.016
843.87	2.147
844.05	2.227
844.23	2.158
844.41	2.110
844.59	1.790
844.77	1.966
844.95	2.256
845.13	1.590
845.31	1.816
845.50	2.036
845.68	2.002
845.86	2.163
846.04	2.293
846.22	2.476
846.40	1.427
846.58	1.723
846.76	2.022
846.94	1.982
847.12	2.113
847.30	1.655
847.48	2.154
847.66	2.256
847.84	2.103
848.02	2.098
848.20	2.718
848.38	2.308
848.56	2.138
848.74	1.403
848.92	2.422
849.10	2.063
849.28	2.305
849.46	2.751
849.64	1.652
849.82	2.696
850.00	1.793
850.18	1.975
850.36	1.944
850.54	1.689
850.72	1.796
850.90	2.006
851.08	1.604
851.26	2.219
851.44	2.010
851.62	1.721
851.80	2.022
851.98	2.416
852.16	1.906
852.34	2.231
852.52	2.067
852.70	2.168
852.87	1.917
853.05	2.180
853.23	1.998
853.41	2.588
853.59	2.233
853.77	2.344
853.95	3.092
854.13	1.845
854.31	2.414
854.49	2.377
854.67	2.361
854.85	2.724
855.03	2.341
855.21	2.235
855.39	2.602
855.57	2.976
855.75	1.970
855.93	3.147
856.11	2.543
856.28	2.980
856.46	2.902
856.64	3.429
856.82	3.340
857.00	3.435
857.18	3.663
857.36	3.656
857.54	3.326
857.72	3.769
857.90	4.025
858.08	4.897
858.26	4.969
858.44	4.818
858.61	4.538
858.79	5.348
858.97	5.887
859.15	4.918
859.33	5.670
859.51	5.670
859.69	5.853
859.87	5.696
860.05	5.741
860.23	5.537
860.40	6.670
860.58	5.843
860.76	7.490
860.94	6.224
861.12	6.729
861.30	6.212
861.48	6.724
861.66	7.081
861.84	7.305
862.01	6.761
862.19	7.393
862.37	7.098
862.55	7.513
862.73	7.668
862.91	7.813
863.09	7.895
863.27	8.088
863.44	8.513
863.62	8.433
863.80	8.341
863.98	7.928
864.16	8.856
864.34	8.271
864.52	8.545
864.69	8.783
864.87	8.317
865.05	8.720
865.23	8.838
865.41	8.844
865.59	8.796
865.76	8.341
865.94	8.528
866.12	9.269
866.30	9.486
866.48	9.469
866.66	9.027
866.83	8.794
867.01	8.823
867.19	9.841
867.37	9.224
867.55	9.088
867.73	9.365
867.90	9.665
868.08	10.466
868.26	9.957
868.44	9.496
868.62	9.880
868.79	10.474
868.97	10.413
869.15	9.404
869.33	10.503
869.51	10.077
869.69	10.542
869.86	9.293
870.04	10.605
870.22	9.514
870.40	10.854
870.57	9.712
870.75	10.132
870.93	10.369
871.11	11.229
871.29	9.840
871.46	10.266
871.64	10.577
871.82	10.181
872.00	10.998
872.18	11.002
872.35	11.283
872.53	10.802
872.71	10.054
872.89	10.368
873.06	10.030
873.24	10.617
873.42	10.722
873.60	11.024
873.77	10.370
873.95	10.508
874.13	10.704
874.31	10.480
874.49	10.757
874.66	11.759
874.84	10.257
875.02	11.370
875.20	10.359
875.37	11.015
875.55	11.835
875.73	10.546
875.91	11.307
876.08	11.722
876.26	11.984
876.44	12.142
876.61	11.950
876.79	13.664
876.97	13.062
877.15	13.713
877.32	13.303
877.50	13.827
877.68	14.017
877.86	14.327
878.03	14.191
878.21	15.099
878.39	14.588
878.56	15.144
878.74	15.894
878.92	15.122
879.10	16.732
879.27	16.713
879.45	16.538
879.63	16.261
879.80	17.006
879.98	16.667
880.16	18.199
880.34	18.075
880.51	19.227
880.69	18.612
880.87	17.891
881.04	19.833
881.22	18.865
881.40	20.034
881.57	20.150
881.75	19.975
881.93	20.914
882.10	20.482
882.28	19.530
882.46	21.236
882.63	21.796
882.81	21.338
882.99	20.318
883.16	21.928
883.34	23.539
883.52	23.328
883.69	21.693
883.87	23.192
884.05	23.656
884.22	22.493
884.40	23.969
884.58	23.757
884.75	24.325
884.93	25.309
885.11	24.882
885.28	23.993
885.46	26.055
885.64	24.805
885.81	24.377
885.99	26.741
886.17	26.734
886.34	25.878
886.52	26.354
886.70	26.188
886.87	26.388
887.05	25.863
887.22	26.177
887.40	26.588
887.58	26.018
887.75	26.872
887.93	26.522
888.11	26.038
888.28	26.010
888.46	25.731
888.63	26.547
888.81	26.947
888.99	27.806
889.16	26.967
889.34	26.944
889.51	27.150
889.69	27.451
889.87	27.336
890.04	27.071
890.22	27.553
890.39	26.413
890.57	27.673
890.75	28.687
890.92	28.247
891.10	28.042
891.27	28.091
891.45	27.513
891.63	28.094
891.80	28.769
891.98	28.362
892.15	28.478
892.33	28.886
892.51	29.293
892.68	29.534
892.86	29.476
893.03	29.767
893.21	30.302
893.38	28.595
893.56	29.841
893.74	30.143
893.91	28.991
894.09	29.432
894.26	29.996
894.44	30.162
894.61	29.285
894.79	28.959
894.96	30.389
895.14	30.916
895.32	31.583
895.49	30.188
895.67	31.397
895.84	31.847
896.02	31.974
896.19	31.298
896.37	31.401
896.54	32.860
896.72	32.689
896.89	32.284
897.07	33.193
897.25	32.863
897.42	34.265
897.60	33.278
897.77	33.527
897.95	33.771
898.12	34.017
898.30	34.760
898.47	34.125
898.65	35.070
898.82	35.257
899.00	35.862
899.17	34.631
899.35	37.834
899.52	37.495
899.70	36.448
899.87	36.312
900.05	37.040
900.22	37.240
900.40	37.567
900.57	37.663
900.75	38.211
900.92	39.241
901.10	38.418
901.27	38.258
901.45	38.304
901.62	39.884
901.80	39.795
901.97	40.375
902.15	40.954
902.32	41.702
902.50	41.216
902.67	40.540
902.85	42.496
903.02	44.031
903.20	42.627
903.37	43.019
903.54	43.168
903.72	43.455
903.89	44.482
904.07	44.546
904.24	44.607
904.42	44.769
904.59	44.568
904.77	45.776
904.94	45.178
905.12	45.899
905.29	44.952
905.47	46.445
905.64	46.974
905.81	46.650
905.99	47.271
906.16	47.866
906.34	47.952
906.51	48.891
906.69	49.294
906.86	50.174
907.03	48.907
907.21	49.381
907.38	50.586
907.56	50.210
907.73	51.222
907.91	49.561
908.08	49.196
908.25	49.781
908.43	50.288
908.60	49.764
908.78	50.179
908.95	50.973
909.13	51.635
909.30	50.501
909.47	49.636
909.65	51.291
909.82	50.970
910.00	47.604
910.17	49.489
910.34	48.058
910.52	47.809
910.69	46.245
910.87	47.255
911.04	47.889
911.21	48.590
911.39	46.486
911.56	46.607
911.73	45.932
911.91	45.013
912.08	45.956
912.26	46.016
912.43	44.290
912.60	45.161
912.78	45.318
912.95	45.072
913.13	45.416
913.30	44.625
913.47	43.304
913.65	44.287
913.82	43.954
913.99	43.590
914.17	43.755
914.34	41.828
914.51	41.913
914.69	41.364
914.86	40.286
915.03	40.246
915.21	40.756
915.38	39.366
915.56	39.514
915.73	39.352
915.90	38.530
916.08	37.864
916.25	38.865
916.42	37.581
916.60	35.779
916.77	35.976
916.94	33.808
917.12	34.743
917.29	32.985
917.46	33.737
917.64	32.724
917.81	31.216
917.98	32.428
918.16	32.634
918.33	31.440
918.50	31.873
918.67	29.551
918.85	29.703
919.02	30.131
919.19	30.031
919.37	29.815
919.54	27.808
919.71	28.405
919.89	28.493
920.06	28.378
920.23	30.964
920.41	28.386
920.58	28.270
920.75	28.657
920.92	28.663
921.10	26.524
921.27	27.483
921.44	26.127
921.62	27.201
921.79	26.348
921.96	26.152
922.13	26.905
922.31	25.330
922.48	26.801
922.65	26.997
922.82	26.811
923.00	25.739
923.17	26.312
923.34	27.184
923.52	26.886
923.69	26.788
923.86	26.125
924.03	25.038
924.21	25.776
924.38	25.232
924.55	26.240
924.72	24.939
924.90	26.077
925.07	26.514
925.24	26.672
925.41	26.393
925.59	26.865
925.76	26.908
925.93	26.130
926.10	26.558
926.28	24.520
926.45	26.905
926.62	25.138
926.79	25.197
926.96	25.209
927.14	24.693
927.31	23.997
927.48	23.794
927.65	23.598
927.83	25.453
928.00	25.170
928.17	23.513
928.34	22.648
928.51	23.158
928.69	23.283
928.86	22.672
929.03	24.524
929.20	25.056
929.37	20.692
929.55	21.992
929.72	21.986
929.89	22.202
930.06	23.171
930.23	19.577
930.41	21.565
930.58	21.439
930.75	21.505
930.92	21.352
931.09	19.252
931.27	18.445
931.44	18.384
931.61	18.395
931.78	18.511
931.95	18.336
932.12	18.798
932.30	17.765
932.47	15.222
932.64	17.569
932.81	16.924
932.98	15.528
933.16	16.047
933.33	16.345
933.50	16.228
933.67	15.972
933.84	16.000
934.01	14.834
934.18	16.466
934.36	15.229
934.53	15.639
934.70	16.349
934.87	13.740
935.04	13.693
935.21	13.428
935.38	13.957
935.56	13.955
935.73	12.983
935.90	13.625
936.07	12.639
936.24	14.389
936.41	13.815
936.58	13.989
936.76	14.233
936.93	13.816
937.10	12.503
937.27	13.622
937.44	13.541
937.61	14.216
937.78	13.015
937.95	13.522
938.13	13.112
938.30	12.968
938.47	13.878
938.64	11.505
938.81	11.617
938.98	11.461
939.15	13.361
939.32	12.610
939.49	13.986
939.66	14.010
939.84	12.211
940.01	11.505
940.18	11.298
940.35	11.552
940.52	13.300
940.69	14.118
940.86	13.129
941.03	11.837
941.20	13.254
941.37	11.941
941.54	12.672
941.71	11.781
941.89	13.648
942.06	11.651
942.23	13.011
942.40	13.460
942.57	12.406
942.74	12.455
942.91	14.045
943.08	10.888
943.25	11.515
943.42	10.529
943.59	11.651
943.76	12.321
943.93	9.546
944.10	11.911
944.27	12.607
944.44	10.691
944.61	10.203
944.79	10.922
944.96	11.471
945.13	11.081
945.30	9.430
945.47	8.870
945.64	9.777
945.81	9.357
945.98	10.882
946.15	11.099
946.32	8.617
946.49	11.675
946.66	10.197
946.83	10.795
947.00	9.951
947.17	8.974
947.34	10.017
947.51	9.966
947.68	10.408
947.85	8.287
948.02	8.376
948.19	6.350
948.36	7.537
948.53	7.034
948.70	7.316
948.87	7.287
949.04	7.323
949.21	6.908
949.38	6.809
949.55	7.603
949.72	6.048
949.89	8.078
950.06	5.582
950.23	6.564
950.40	6.341
950.57	4.788
950.74	6.144
950.91	5.346
951.08	6.769
951.25	4.775
951.42	5.643
951.59	4.245
951.76	5.491
951.93	5.036
952.10	6.109
952.27	4.726
952.44	6.449
952.61	6.747
952.77	5.127
952.94	5.320
953.11	5.407
953.28	6.800
953.45	3.271
953.62	4.672
953.79	3.387
953.96	4.627
954.13	4.568
954.30	4.480
954.47	5.960
954.64	4.307
954.81	5.151
954.98	4.153
955.15	5.329
955.32	4.844
955.49	2.117
955.65	4.201
955.82	5.778
955.99	5.065
956.16	5.543
956.33	4.377
956.50	5.988
956.67	2.691
956.84	3.955
957.01	4.727
957.18	2.238
957.35	4.104
957.52	3.799
957.68	3.775
957.85	5.073
958.02	6.202
958.19	4.304
958.36	5.345
958.53	5.261
958.70	4.787
958.87	2.500
959.04	5.348
959.21	4.076
959.37	3.228
959.54	3.035
959.71	4.301
959.88	2.813
960.05	4.268
960.22	4.000
960.39	3.482
960.56	4.642
960.72	7.452
960.89	8.162
961.06	6.504
961.23	5.966
961.40	8.843
961.57	5.602
961.74	7.942
961.90	7.546
962.07	7.865
962.24	8.117
962.41	7.190
962.58	7.487
962.75	5.402
962.92	7.160
963.08	9.401
963.25	7.674
963.42	9.932
963.59	10.750
963.76	9.599
963.93	11.352
964.10	9.076
964.26	8.867
964.43	7.671
964.60	9.087
964.77	9.613
964.94	9.050
965.10	8.740
965.27	10.632
965.44	10.025
965.61	10.250
965.78	10.711
965.95	11.992
966.11	13.047
966.28	13.121
966.45	7.848
966.62	12.458
966.79	11.059
966.95	11.456
967.12	13.648
967.29	12.619
967.46	11.136
967.63	13.042
967.79	10.767
967.96	13.183
968.13	11.712
968.30	14.720
968.47	14.363
968.63	13.401
968.80	14.593
968.97	13.768
969.14	14.837
969.31	16.164
969.47	13.324
969.64	14.659
969.81	14.460
969.98	15.844
970.14	13.839
970.31	14.068
970.48	14.729
970.65	17.146
970.81	13.004
970.98	15.306
971.15	13.587
971.32	14.685
971.48	14.042
971.65	16.594
971.82	16.103
971.99	13.872
972.15	15.596
972.32	15.645
972.49	14.155
972.66	18.312
972.82	17.017
972.99	16.341
973.16	16.838
973.33	18.768
973.49	16.871
973.66	13.078
973.83	14.556
974.00	18.472
974.16	13.518
974.33	16.497
974.50	15.808
974.67	15.674
974.83	16.535
975.00	21.011
975.17	17.035
975.33	16.346
975.50	16.879
975.67	17.681
975.84	19.343
976.00	17.932
976.17	19.562
976.34	17.478
976.50	15.200
976.67	20.928
976.84	16.620
977.00	20.746
977.17	19.544
977.34	22.764
977.50	20.570
977.67	21.400
977.84	23.610
978.01	19.380
978.17	27.678
978.34	25.893
978.51	23.588
978.67	25.298
978.84	23.730
979.01	23.242
979.17	21.008
979.34	22.801
979.51	22.959
979.67	26.301
979.84	31.818
980.01	27.452
980.17	28.437
980.34	26.535
980.51	23.870
980.67	28.417
980.84	30.851
981.01	29.698
981.17	31.141
981.34	34.690
981.50	31.678
981.67	30.483
981.84	32.763
982.00	34.176
982.17	29.138
982.34	28.466
982.50	29.839
982.67	32.582
982.84	34.837
983.00	31.904
983.17	36.393
983.33	35.871
983.50	35.534
983.67	31.624
983.83	30.713
984.00	38.144
984.17	35.911
984.33	33.223
984.50	41.768
984.66	38.774
984.83	40.779
985.00	36.643
985.16	33.930
985.33	33.076
985.49	39.654
985.66	38.425
985.83	36.550
985.99	43.022
986.16	39.392
986.32	39.720
986.49	41.524
986.66	39.209
986.82	40.728
986.99	40.569
987.15	41.024
987.32	41.304
987.49	40.816
987.65	38.983
987.82	42.378
987.98	41.695
988.15	46.051
988.31	48.971
988.48	42.070
988.65	44.737
988.81	42.356
988.98	41.076
989.14	42.198
989.31	43.289
989.47	39.912
989.64	45.024
989.80	42.857
989.97	43.321
990.14	45.863
990.30	40.238
990.47	44.751
990.63	48.889
990.80	43.779
990.96	45.544
991.13	48.718
991.29	49.307
991.46	44.138
991.62	46.678
991.79	43.325
991.95	45.282
992.12	46.805
992.29	50.042
992.45	50.392
992.62	44.682
992.78	53.339
992.95	48.537
993.11	50.043
993.28	47.500
993.44	47.314
993.61	43.162
993.77	46.040
993.94	45.902
994.10	49.393
994.27	42.449
994.43	49.739
994.60	41.998
994.76	51.800
994.93	48.014
995.09	51.765
995.26	51.331
995.42	50.717
995.59	53.279
995.75	48.364
995.92	58.200
996.08	60.056
996.25	52.522
996.41	51.651
996.58	57.312
996.74	54.905
996.91	56.433
997.07	55.360
997.23	60.985
997.40	58.850
997.56	56.077
997.73	61.287
997.89	58.665
998.06	62.939
998.22	54.654
998.39	57.313
998.55	61.580
998.72	64.565
998.88	64.539
999.05	58.128
999.21	60.685
999.37	65.139
999.54	62.135
999.70	61.094
999.87	63.075
1000.03	70.247
1000.20	60.359
1000.36	69.342
1000.52	72.738
1000.69	72.103
1000.85	63.767
1001.02	64.983
1001.18	57.111
1001.35	65.011
1001.51	71.663
1001.67	73.605
1001.84	66.392
1002.00	76.451
1002.17	75.480
1002.33	70.084
1002.50	66.005
1002.66	70.766
1002.82	64.910
1002.99	76.538
1003.15	68.269
1003.32	75.245
1003.48	68.263
1003.64	67.141
1003.81	76.685
1003.97	70.892
1004.14	71.373
1004.30	62.546
1004.46	77.714
1004.63	73.326
1004.79	69.021
1004.95	77.210
1005.12	73.962
1005.28	72.544
1005.45	78.037
1005.61	68.149
1005.77	73.262
1005.94	83.668
1006.10	76.952
1006.26	72.222
1006.43	78.507
1006.59	77.220
1006.76	76.273
1006.92	78.588
1007.08	77.493
1007.25	79.346
1007.41	74.617
1007.57	83.451
1007.74	80.233
1007.90	78.637
1008.06	79.724
1008.23	78.460
1008.39	91.982
1008.55	77.793
1008.72	77.603
1008.88	89.339
1009.04	92.932
1009.21	79.007
1009.37	76.695
1009.53	81.366
1009.70	81.657
1009.86	85.755
1010.02	78.473
1010.19	84.786
1010.35	86.963
1010.51	74.790
1010.68	85.084
1010.84	84.866
1011.00	81.860
1011.17	80.514
1011.33	76.596
1011.49	81.111
1011.66	87.243
1011.82	88.191
1011.98	75.397
1012.14	86.964
1012.31	76.292
1012.47	80.960
1012.63	81.626
1012.80	79.019
1012.96	83.278
1013.12	84.452
1013.29	78.697
1013.45	81.767
1013.61	74.295
1013.77	78.520
1013.94	71.406
1014.10	81.611
1014.26	76.525
1014.43	82.987
1014.59	84.540
1014.75	74.460
1014.91	79.129
1015.08	84.160
1015.24	76.213
1015.40	72.024
1015.56	81.343
1015.73	73.192
1015.89	72.243
1016.05	70.588
1016.21	63.908
1016.38	78.285
1016.54	89.245
1016.70	81.744
1016.86	86.857
1017.03	86.026
1017.19	69.964
1017.35	82.119
1017.51	75.406
1017.68	61.934
1017.84	69.919
1018.00	75.337
1018.16	73.106
1018.33	70.450
1018.49	82.008
1018.65	75.056
1018.81	74.690
1018.97	68.600
1019.14	70.675
1019.30	77.088
1019.46	75.231
1019.62	72.907
1019.79	71.147
1019.95	54.607
1020.11	81.149
1020.27	81.277
1020.43	67.452
1020.60	72.406
1020.76	84.327
1020.92	73.594
1021.08	66.517
1021.24	66.898
1021.41	83.041
1021.57	80.198
1021.73	67.647
1021.89	65.996
1022.05	81.980
1022.21	81.003
1022.38	54.378
1022.54	72.482
1022.70	77.600
1022.86	66.125
1023.02	62.745
1023.19	85.185
1023.35	83.333
1023.51	65.952
1023.67	75.131
1023.83	70.195
1023.99	79.268
1024.16	78.571
1024.32	64.373
1024.48	70.370
1024.64	61.212
1024.80	85.042
1024.96	73.995
1025.12	83.240
1025.29	74.413
1025.45	87.227
1025.61	65.116
1025.77	47.745
1025.93	73.028
1026.09	73.876
1026.26	56.958
1026.42	55.764
1026.58	72.403
1026.74	81.550
1026.90	70.000
1027.06	64.013
1027.22	79.817
1027.38	84.062
1027.55	99.170
1027.71	67.949
1027.87	87.052
1028.03	72.964
1028.19	71.324
1028.35	71.552
1028.51	84.307
1028.67	80.702
1028.83	67.293
1029.00	72.659
1029.16	56.777
1029.32	79.835
1029.48	86.765
1029.64	73.841
1029.80	72.281
1029.96	82.109
1030.12	83.333
1030.28	77.703
1030.44	80.000
1030.61	78.516
1030.77	66.270
1030.93	85.932
1031.09	56.723
1031.25	102.791
1031.41	93.269
1031.57	79.853
1031.73	82.743
1031.89	91.837
1032.05	78.313
1032.21	100.448
1032.37	74.486
1032.53	100.909
1032.69	102.881
1032.86	100.000
1033.02	100.971
1033.18	95.885
1033.34	68.750
1033.50	77.436
1033.66	97.549
1033.82	103.896
1033.98	81.702
1034.14	93.452
1034.30	106.195
1034.46	78.903
1034.62	73.684
1034.78	92.825
1034.94	78.988
1035.10	105.500
1035.26	84.914
1035.42	111.765
1035.58	101.220
1035.74	91.892
1035.90	92.857
1036.06	64.390
1036.22	99.519
1036.38	107.042
1036.54	77.570
1036.70	91.758
1036.86	103.409
1037.02	99.310
1037.18	81.183
1037.34	95.238
1037.50	110.215
1037.66	144.755
1037.82	96.618
1037.98	94.924
1038.14	134.503
1038.30	169.231
1038.46	114.865
1038.62	88.325
1038.78	114.844
1038.94	144.531
1039.10	110.053
1039.26	86.228
1039.42	142.593
1039.58	64.894
1039.74	99.324
1039.90	82.692
1040.06	164.706
>>>>>End Processed Spectral Data<<<<<
