SpectraSuite Data File
++++++++++++++++++++++++++++++++++++
Date: Mon Mar 27 20:05:13 EEST 2017
User: TheoProf
Dark Spectrum Present: Yes
Reference Spectrum Present: Yes
Number of Sampled Component Spectra: 1
Spectrometers: USB4C02475
Integration Time (usec): 426341 (USB4C02475)
Spectra Averaged: 1 (USB4C02475)
Boxcar Smoothing: 0 (USB4C02475)
Correct for Electrical Dark: No (USB4C02475)
Strobe/Lamp Enabled: No (USB4C02475)
Correct for Detector Non-linearity: No (USB4C02475)
Correct for Stray Light: No (USB4C02475)
Number of Pixels in Processed Spectrum: 3648
>>>>>Begin Processed Spectral Data<<<<<
344.91	-17.647
345.13	-17.647
345.35	-17.647
345.57	0.000
345.79	22.222
346.00	-905.263
346.22	-255.263
346.44	675.000
346.66	1200.000
346.87	198.333
347.09	0.000
347.31	-792.308
347.53	-353.571
347.74	-84.375
347.96	-119.444
348.18	490.000
348.40	1400.000
348.61	-476.000
348.83	-493.750
349.05	-414.286
349.27	55.714
349.48	-558.333
349.70	452.381
349.92	1050.000
350.14	-1328.571
350.35	1750.000
350.57	450.000
350.79	428.571
351.01	355.102
351.22	354.054
351.44	-1471.429
351.66	93.651
351.87	281.081
352.09	155.224
352.31	162.162
352.53	383.333
352.74	207.246
352.96	135.088
353.18	308.333
353.40	278.723
353.61	430.435
353.83	154.930
354.05	500.000
354.26	-4300.000
354.48	2175.000
354.70	-560.000
354.92	189.041
355.13	303.571
355.35	-972.727
355.57	-141.667
355.78	135.526
356.00	570.833
356.22	338.710
356.44	2325.000
356.65	1040.000
356.87	1550.000
357.09	760.000
357.30	347.826
357.52	226.786
357.74	426.667
357.95	181.250
358.17	-2450.000
358.39	-237.500
358.60	1525.000
358.82	152.778
359.04	224.138
359.26	140.426
359.47	407.407
359.69	500.000
359.91	377.419
360.12	236.842
360.34	-1018.182
360.56	585.714
360.77	-1200.000
360.99	-990.909
361.21	302.222
361.42	-1866.667
361.64	-1028.571
361.86	314.286
362.07	591.667
362.29	303.333
362.51	245.714
362.72	500.000
362.94	114.286
363.16	363.333
363.37	460.000
363.59	211.429
363.81	302.703
364.02	862.500
364.24	8900.000
364.46	262.963
364.67	294.444
364.89	450.000
365.11	0.000
365.32	206.667
365.54	-34.375
365.76	-164.286
365.97	343.478
366.19	216.667
366.41	209.615
366.62	172.727
366.84	137.500
367.05	278.788
367.27	1333.333
367.49	450.000
367.70	167.391
367.92	295.122
368.14	152.308
368.35	457.692
368.57	126.506
368.79	143.956
369.00	233.333
369.22	172.000
369.43	114.286
369.65	1542.857
369.87	604.545
370.08	172.222
370.30	289.130
370.51	515.385
370.73	120.779
370.95	645.455
371.16	310.000
371.38	305.000
371.60	618.750
371.81	334.615
372.03	1750.000
372.24	254.286
372.46	470.370
372.68	132.394
372.89	137.333
373.11	80.198
373.32	-58.974
373.54	1050.000
373.76	140.909
373.97	220.833
374.19	172.152
374.40	394.118
374.62	321.212
374.84	-523.077
375.05	127.143
375.27	805.882
375.48	485.714
375.70	377.419
375.92	111.207
376.13	-1666.667
376.35	89.286
376.56	187.755
376.78	145.000
376.99	351.515
377.21	155.814
377.43	111.290
377.64	380.000
377.86	262.500
378.07	152.381
378.29	161.905
378.51	161.176
378.72	251.282
378.94	93.162
379.15	72.632
379.37	114.286
379.58	121.538
379.80	140.984
380.01	230.769
380.23	215.000
380.45	188.889
380.66	213.333
380.88	151.471
381.09	202.128
381.31	152.564
381.52	130.769
381.74	110.526
381.95	250.000
382.17	132.143
382.39	176.389
382.60	168.571
382.82	70.909
383.03	130.380
383.25	102.632
383.46	220.000
383.68	101.010
383.89	103.604
384.11	256.818
384.32	93.548
384.54	-180.952
384.76	70.968
384.97	143.548
385.19	1.429
385.40	183.562
385.62	142.857
385.83	127.059
386.05	125.862
386.26	74.380
386.48	108.791
386.69	85.333
386.91	32.979
387.12	94.444
387.34	98.198
387.55	-11.111
387.77	55.039
387.98	74.468
388.20	112.150
388.41	91.667
388.63	50.758
388.84	46.067
389.06	115.000
389.27	56.716
389.49	78.431
389.70	62.595
389.92	60.839
390.13	63.158
390.35	88.550
390.56	119.531
390.78	73.203
390.99	57.732
391.21	83.824
391.42	27.820
391.64	97.203
391.85	21.698
392.07	52.137
392.28	47.468
392.50	66.667
392.71	49.606
392.93	3.788
393.14	57.364
393.36	88.525
393.57	31.481
393.79	75.000
394.00	55.652
394.22	53.448
394.43	52.632
394.65	49.444
394.86	43.023
395.08	63.115
395.29	28.205
395.50	37.629
395.72	10.429
395.93	78.065
396.15	32.716
396.36	45.752
396.58	25.342
396.79	61.350
397.01	54.762
397.22	35.567
397.44	46.860
397.65	48.077
397.87	54.645
398.08	46.405
398.29	44.715
398.51	49.751
398.72	29.082
398.94	31.765
399.15	40.933
399.37	42.775
399.58	34.498
399.80	33.333
400.01	32.105
400.22	37.143
400.44	31.004
400.65	-6.250
400.87	23.810
401.08	22.222
401.30	18.056
401.51	25.123
401.72	45.570
401.94	20.833
402.15	29.795
402.37	6.111
402.58	26.071
402.80	25.000
403.01	26.540
403.22	28.244
403.44	31.338
403.65	31.746
403.87	19.685
404.08	27.797
404.30	25.105
404.51	30.183
404.72	33.022
404.94	27.011
405.15	31.102
405.37	36.991
405.58	27.070
405.79	14.141
406.01	28.472
406.22	11.356
406.44	17.993
406.65	24.110
406.86	5.639
407.08	18.387
407.29	19.624
407.51	18.156
407.72	9.223
407.93	20.492
408.15	12.963
408.36	15.681
408.58	24.524
408.79	17.612
409.00	9.474
409.22	18.263
409.43	13.953
409.64	14.524
409.86	13.636
410.07	25.055
410.29	27.494
410.50	20.136
410.71	11.348
410.93	18.511
411.14	11.653
411.35	22.747
411.57	16.633
411.78	29.376
412.00	16.638
412.21	29.880
412.42	11.511
412.64	9.766
412.85	13.628
413.06	18.085
413.28	20.794
413.49	22.804
413.70	23.423
413.92	21.488
414.13	14.286
414.34	26.116
414.56	27.660
414.77	21.338
414.98	20.163
415.20	21.207
415.41	32.907
415.63	26.187
415.84	37.406
416.05	23.127
416.27	35.285
416.48	24.466
416.69	21.713
416.91	31.026
417.12	31.783
417.33	32.270
417.55	31.551
417.76	38.261
417.97	30.871
418.19	43.235
418.40	30.556
418.61	32.853
418.83	36.375
419.04	38.519
419.25	30.423
419.46	40.000
419.68	42.353
419.89	38.209
420.10	46.784
420.32	45.173
420.53	42.971
420.74	47.464
420.96	44.298
421.17	46.380
421.38	51.229
421.60	50.251
421.81	50.517
422.02	53.013
422.23	47.328
422.45	51.672
422.66	55.057
422.87	55.795
423.09	56.316
423.30	59.192
423.51	57.518
423.73	57.326
423.94	64.129
424.15	55.348
424.36	61.202
424.58	60.928
424.79	64.433
425.00	61.951
425.22	66.091
425.43	61.059
425.64	66.302
425.85	62.124
426.07	71.272
426.28	66.225
426.49	66.157
426.71	66.667
426.92	71.693
427.13	65.138
427.34	69.505
427.56	66.236
427.77	72.566
427.98	68.705
428.19	68.234
428.41	68.477
428.62	69.005
428.83	67.672
429.04	61.743
429.26	67.914
429.47	65.650
429.68	59.697
429.89	68.664
430.11	66.847
430.32	63.900
430.53	63.102
430.74	69.493
430.96	70.641
431.17	60.972
431.38	65.785
431.59	59.716
431.81	61.624
432.02	56.317
432.23	55.485
432.44	50.455
432.66	54.848
432.87	54.074
433.08	55.167
433.29	56.254
433.51	56.223
433.72	55.179
433.93	53.456
434.14	56.310
434.35	51.733
434.57	49.354
434.78	49.003
434.99	49.935
435.20	48.993
435.42	46.968
435.63	52.436
435.84	46.757
436.05	51.569
436.26	44.185
436.48	44.238
436.69	47.034
436.90	43.337
437.11	42.022
437.32	48.219
437.54	44.128
437.75	46.519
437.96	45.499
438.17	44.101
438.38	40.999
438.60	37.207
438.81	38.948
439.02	38.353
439.23	36.866
439.44	36.499
439.66	35.886
439.87	35.432
440.08	30.100
440.29	29.465
440.50	32.627
440.72	30.352
440.93	29.220
441.14	27.172
441.35	28.509
441.56	23.552
441.77	22.181
441.99	22.338
442.20	22.660
442.41	20.630
442.62	19.006
442.83	19.061
443.04	17.606
443.26	16.685
443.47	19.595
443.68	14.909
443.89	14.542
444.10	12.935
444.31	14.050
444.53	14.315
444.74	10.005
444.95	9.807
445.16	8.376
445.37	10.197
445.58	7.373
445.80	8.281
446.01	5.608
446.22	6.244
446.43	5.674
446.64	4.112
446.85	4.886
447.06	6.037
447.28	5.318
447.49	5.962
447.70	4.304
447.91	4.530
448.12	3.469
448.33	4.300
448.54	3.603
448.76	4.724
448.97	1.429
449.18	4.666
449.39	1.670
449.60	3.212
449.81	1.474
450.02	2.632
450.23	5.168
450.45	4.736
450.66	4.187
450.87	1.953
451.08	4.845
451.29	2.844
451.50	4.023
451.71	0.232
451.92	4.385
452.13	4.300
452.35	3.391
452.56	2.190
452.77	1.674
452.98	3.162
453.19	1.376
453.40	2.657
453.61	3.925
453.82	1.513
454.03	1.178
454.25	3.199
454.46	4.612
454.67	2.450
454.88	0.707
455.09	2.442
455.30	3.024
455.51	2.113
455.72	1.266
455.93	4.592
456.14	2.437
456.35	0.213
456.56	3.610
456.78	3.882
456.99	6.034
457.20	1.809
457.41	3.163
457.62	0.919
457.83	3.966
458.04	0.954
458.25	3.417
458.46	1.881
458.67	6.080
458.88	4.473
459.09	1.301
459.30	1.312
459.51	3.567
459.73	4.335
459.94	3.521
460.15	2.198
460.36	2.649
460.57	2.057
460.78	1.255
460.99	3.018
461.20	2.446
461.41	2.996
461.62	-0.989
461.83	2.197
462.04	4.093
462.25	1.601
462.46	2.480
462.67	0.935
462.88	3.725
463.09	3.274
463.30	2.495
463.51	3.843
463.72	3.369
463.93	3.667
464.15	-1.160
464.36	2.538
464.57	2.100
464.78	4.654
464.99	2.124
465.20	3.024
465.41	2.027
465.62	3.369
465.83	3.685
466.04	1.827
466.25	2.527
466.46	1.933
466.67	1.089
466.88	2.232
467.09	1.953
467.30	1.441
467.51	2.559
467.72	1.446
467.93	0.531
468.14	2.769
468.35	2.382
468.56	2.835
468.77	3.008
468.98	2.626
469.19	3.268
469.40	1.487
469.61	2.876
469.82	1.441
470.03	2.166
470.24	1.557
470.45	3.726
470.66	2.078
470.87	1.495
471.08	2.136
471.29	1.576
471.50	2.909
471.71	1.383
471.92	2.595
472.13	1.793
472.34	1.826
472.55	2.042
472.76	2.001
472.97	1.637
473.18	1.752
473.39	2.645
473.60	1.275
473.81	1.730
474.01	3.168
474.22	1.159
474.43	2.017
474.64	1.965
474.85	1.904
475.06	1.667
475.27	0.713
475.48	2.132
475.69	2.070
475.90	1.514
476.11	1.422
476.32	3.057
476.53	1.484
476.74	1.310
476.95	2.110
477.16	2.126
477.37	2.130
477.58	3.128
477.79	2.583
478.00	1.193
478.21	3.363
478.41	3.024
478.62	1.058
478.83	3.948
479.04	2.343
479.25	2.134
479.46	3.262
479.67	2.171
479.88	2.764
480.09	2.837
480.30	2.730
480.51	3.398
480.72	4.205
480.93	3.219
481.14	5.067
481.34	4.245
481.55	4.131
481.76	4.198
481.97	5.865
482.18	6.644
482.39	6.238
482.60	6.038
482.81	7.778
483.02	6.894
483.23	7.574
483.44	7.749
483.65	8.908
483.85	9.859
484.06	9.662
484.27	10.459
484.48	10.489
484.69	10.853
484.90	12.440
485.11	11.436
485.32	14.026
485.53	14.570
485.73	14.746
485.94	15.975
486.15	16.651
486.36	17.305
486.57	17.540
486.78	18.156
486.99	19.607
487.20	21.209
487.41	21.724
487.61	21.027
487.82	22.981
488.03	23.218
488.24	24.981
488.45	25.102
488.66	25.970
488.87	26.676
489.08	27.993
489.28	29.982
489.49	29.142
489.70	31.129
489.91	30.386
490.12	31.716
490.33	31.626
490.54	32.554
490.74	34.093
490.95	34.367
491.16	34.980
491.37	36.168
491.58	35.944
491.79	37.975
492.00	37.838
492.20	38.143
492.41	38.640
492.62	38.097
492.83	39.773
493.04	40.032
493.25	40.416
493.45	42.060
493.66	41.873
493.87	44.206
494.08	44.073
494.29	45.486
494.50	46.808
494.70	47.284
494.91	49.139
495.12	49.829
495.33	49.868
495.54	52.089
495.75	52.691
495.95	54.607
496.16	54.513
496.37	54.694
496.58	56.717
496.79	58.521
496.99	58.888
497.20	59.352
497.41	60.822
497.62	61.307
497.83	61.032
498.04	61.572
498.24	61.036
498.45	63.105
498.66	63.905
498.87	63.258
499.08	65.056
499.28	64.779
499.49	63.444
499.70	64.969
499.91	63.795
500.12	64.382
500.32	63.201
500.53	63.933
500.74	62.780
500.95	64.428
501.15	61.982
501.36	62.272
501.57	61.184
501.78	60.771
501.99	60.779
502.19	58.620
502.40	59.650
502.61	58.674
502.82	57.840
503.02	56.845
503.23	56.149
503.44	55.404
503.65	55.306
503.86	54.545
504.06	52.632
504.27	51.879
504.48	50.434
504.69	50.107
504.89	50.390
505.10	48.042
505.31	47.952
505.52	47.239
505.72	47.805
505.93	45.556
506.14	44.805
506.35	45.501
506.55	44.921
506.76	44.024
506.97	45.460
507.18	43.672
507.38	43.749
507.59	42.675
507.80	42.360
508.01	41.738
508.21	41.444
508.42	40.077
508.63	39.952
508.84	38.883
509.04	38.581
509.25	37.669
509.46	35.817
509.67	36.708
509.87	34.660
510.08	34.244
510.29	32.600
510.49	32.021
510.70	30.730
510.91	28.675
511.12	27.808
511.32	27.335
511.53	25.810
511.74	24.741
511.94	23.464
512.15	22.696
512.36	21.290
512.57	19.881
512.77	19.247
512.98	17.789
513.19	16.753
513.39	15.846
513.60	15.196
513.81	14.153
514.01	13.348
514.22	13.470
514.43	11.412
514.64	10.942
514.84	10.324
515.05	9.875
515.26	8.908
515.46	8.782
515.67	7.621
515.88	6.777
516.08	6.204
516.29	5.331
516.50	5.192
516.70	4.509
516.91	3.576
517.12	3.456
517.32	2.910
517.53	2.807
517.74	2.669
517.95	2.184
518.15	1.579
518.36	1.478
518.57	1.984
518.77	1.228
518.98	1.239
519.19	1.449
519.39	0.996
519.60	0.794
519.80	1.014
520.01	0.836
520.22	0.479
520.42	0.891
520.63	0.597
520.84	0.702
521.04	1.148
521.25	0.827
521.46	0.624
521.66	0.813
521.87	0.850
522.08	0.955
522.28	0.897
522.49	0.764
522.70	0.564
522.90	0.773
523.11	0.787
523.31	0.980
523.52	0.854
523.73	0.444
523.93	0.640
524.14	0.458
524.35	0.534
524.55	0.453
524.76	0.420
524.97	1.214
525.17	0.678
525.38	0.899
525.58	1.030
525.79	0.387
526.00	0.824
526.20	0.831
526.41	0.758
526.61	0.680
526.82	0.738
527.03	0.688
527.23	0.377
527.44	0.671
527.64	0.644
527.85	0.701
528.06	0.506
528.26	1.037
528.47	1.175
528.68	0.338
528.88	1.058
529.09	0.758
529.29	0.729
529.50	0.537
529.70	0.613
529.91	0.689
530.12	0.740
530.32	0.965
530.53	1.115
530.73	0.689
530.94	0.313
531.15	1.018
531.35	1.163
531.56	0.643
531.76	0.902
531.97	0.639
532.17	0.771
532.38	0.794
532.59	0.650
532.79	0.858
533.00	0.814
533.20	0.824
533.41	0.901
533.61	0.621
533.82	0.918
534.03	0.499
534.23	0.599
534.44	0.714
534.64	0.889
534.85	0.644
535.05	0.588
535.26	0.770
535.46	0.646
535.67	1.187
535.88	0.838
536.08	1.022
536.29	0.859
536.49	0.955
536.70	1.114
536.90	0.981
537.11	1.007
537.31	0.799
537.52	1.121
537.72	1.415
537.93	1.191
538.13	1.500
538.34	1.418
538.55	1.903
538.75	1.560
538.96	2.178
539.16	1.825
539.37	2.394
539.57	2.216
539.78	2.285
539.98	2.244
540.19	2.321
540.39	3.137
540.60	2.501
540.80	3.177
541.01	3.325
541.21	3.615
541.42	3.943
541.62	4.055
541.83	5.266
542.03	5.285
542.24	5.810
542.44	6.900
542.65	6.674
542.85	7.295
543.06	7.958
543.26	8.672
543.47	8.968
543.67	9.781
543.88	10.848
544.08	11.119
544.29	12.444
544.49	12.864
544.70	13.020
544.90	14.021
545.11	14.957
545.31	15.558
545.52	16.867
545.72	17.172
545.93	18.262
546.13	19.188
546.34	19.348
546.54	20.053
546.75	21.607
546.95	22.167
547.15	21.876
547.36	23.435
547.56	24.653
547.77	25.973
547.97	26.746
548.18	27.330
548.38	28.403
548.59	28.872
548.79	30.274
549.00	30.672
549.20	31.708
549.41	32.503
549.61	33.652
549.81	34.699
550.02	35.456
550.22	36.054
550.43	37.702
550.63	38.111
550.84	39.734
551.04	40.837
551.25	42.441
551.45	43.601
551.65	45.146
551.86	46.204
552.06	48.381
552.27	49.143
552.47	50.940
552.68	52.606
552.88	53.297
553.08	54.224
553.29	54.877
553.49	56.612
553.70	59.503
553.90	59.251
554.11	61.668
554.31	62.572
554.51	63.578
554.72	64.419
554.92	66.467
555.13	67.589
555.33	68.125
555.53	69.185
555.74	69.274
555.94	70.620
556.15	72.850
556.35	73.255
556.56	74.236
556.76	74.859
556.96	75.895
557.17	76.817
557.37	77.566
557.58	78.194
557.78	79.029
557.98	78.523
558.19	79.901
558.39	78.987
558.59	79.925
558.80	79.768
559.00	80.123
559.21	81.166
559.41	81.364
559.61	79.540
559.82	80.636
560.02	81.115
560.23	80.230
560.43	79.577
560.63	80.160
560.84	80.378
561.04	80.224
561.24	79.830
561.45	80.211
561.65	79.768
561.85	79.744
562.06	79.840
562.26	79.927
562.47	79.190
562.67	79.631
562.87	79.479
563.08	79.931
563.28	79.401
563.48	78.086
563.69	79.299
563.89	78.650
564.09	79.202
564.30	78.517
564.50	79.153
564.70	79.239
564.91	78.876
565.11	78.722
565.31	77.968
565.52	78.757
565.72	78.166
565.92	78.733
566.13	77.610
566.33	78.537
566.53	77.637
566.74	76.366
566.94	77.317
567.14	77.719
567.35	78.235
567.55	75.144
567.75	77.422
567.96	76.427
568.16	76.717
568.36	75.742
568.57	75.074
568.77	75.675
568.97	74.635
569.18	75.055
569.38	75.191
569.58	74.263
569.79	74.711
569.99	74.454
570.19	74.584
570.39	73.972
570.60	74.227
570.80	73.994
571.00	74.325
571.21	74.434
571.41	73.107
571.61	73.032
571.82	72.480
572.02	73.554
572.22	72.653
572.42	73.471
572.63	72.780
572.83	74.148
573.03	72.525
573.24	72.314
573.44	73.392
573.64	72.917
573.84	73.311
574.05	73.849
574.25	74.205
574.45	74.157
574.66	74.708
574.86	75.082
575.06	74.770
575.26	76.371
575.47	75.284
575.67	76.728
575.87	75.910
576.07	76.339
576.28	77.405
576.48	78.078
576.68	76.826
576.88	76.507
577.09	76.386
577.29	76.649
577.49	76.358
577.69	77.845
577.90	76.533
578.10	76.733
578.30	77.530
578.50	77.461
578.71	77.169
578.91	75.539
579.11	77.798
579.31	77.415
579.52	77.696
579.72	77.275
579.92	76.845
580.12	76.579
580.33	77.087
580.53	75.807
580.73	77.119
580.93	76.830
581.13	76.521
581.34	77.005
581.54	76.546
581.74	75.883
581.94	77.543
582.15	77.303
582.35	77.573
582.55	76.626
582.75	75.682
582.95	75.867
583.16	74.873
583.36	74.982
583.56	74.668
583.76	74.566
583.96	73.842
584.17	73.445
584.37	72.761
584.57	72.209
584.77	72.355
584.97	72.344
585.18	70.996
585.38	70.852
585.58	69.139
585.78	68.903
585.98	67.409
586.19	67.315
586.39	65.635
586.59	64.498
586.79	64.377
586.99	63.451
587.20	63.838
587.40	62.137
587.60	61.860
587.80	59.582
588.00	59.403
588.20	59.970
588.41	58.507
588.61	57.221
588.81	55.728
589.01	55.731
589.21	53.869
589.41	53.841
589.62	52.855
589.82	51.899
590.02	51.775
590.22	50.726
590.42	49.760
590.62	49.660
590.83	48.776
591.03	48.193
591.23	47.664
591.43	48.961
591.63	46.740
591.83	46.482
592.03	46.276
592.24	45.986
592.44	45.489
592.64	44.308
592.84	43.511
593.04	44.242
593.24	42.991
593.44	42.555
593.65	42.006
593.85	41.912
594.05	41.177
594.25	40.757
594.45	40.186
594.65	40.096
594.85	40.143
595.06	39.423
595.26	38.807
595.46	38.798
595.66	38.290
595.86	37.581
596.06	38.066
596.26	36.752
596.46	36.976
596.66	37.278
596.87	36.573
597.07	36.369
597.27	36.016
597.47	35.944
597.67	35.720
597.87	35.502
598.07	35.376
598.27	34.966
598.47	34.905
598.67	34.897
598.88	34.418
599.08	33.752
599.28	33.420
599.48	32.776
599.68	33.492
599.88	32.394
600.08	32.467
600.28	31.734
600.48	31.326
600.68	30.860
600.88	29.945
601.09	29.647
601.29	29.485
601.49	28.381
601.69	27.622
601.89	26.805
602.09	26.614
602.29	25.283
602.49	24.396
602.69	23.939
602.89	23.529
603.09	22.219
603.29	22.240
603.49	20.996
603.69	20.433
603.90	19.581
604.10	18.966
604.30	18.351
604.50	17.388
604.70	16.794
604.90	16.123
605.10	15.470
605.30	15.133
605.50	14.168
605.70	13.397
605.90	12.835
606.10	12.267
606.30	11.610
606.50	11.061
606.70	10.954
606.90	10.435
607.10	9.797
607.30	8.941
607.50	8.560
607.70	7.965
607.90	7.431
608.10	6.950
608.30	6.508
608.50	6.258
608.70	5.992
608.90	5.566
609.11	5.029
609.31	4.934
609.51	4.473
609.71	3.772
609.91	3.469
610.11	3.477
610.31	2.981
610.51	2.928
610.71	2.454
610.91	2.480
611.11	2.192
611.31	1.790
611.51	1.767
611.71	1.380
611.91	1.252
612.11	0.991
612.31	1.412
612.51	0.769
612.71	1.077
612.91	0.504
613.11	0.572
613.31	0.766
613.51	0.590
613.71	0.614
613.91	0.326
614.11	0.403
614.31	0.591
614.50	0.358
614.70	0.378
614.90	0.384
615.10	0.240
615.30	0.453
615.50	0.197
615.70	0.092
615.90	0.202
616.10	-0.013
616.30	0.291
616.50	0.366
616.70	0.476
616.90	0.296
617.10	0.067
617.30	0.408
617.50	0.282
617.70	0.321
617.90	0.196
618.10	0.371
618.30	0.253
618.50	0.270
618.70	0.191
618.90	0.055
619.10	0.197
619.30	0.325
619.49	0.217
619.69	0.248
619.89	0.228
620.09	0.059
620.29	0.377
620.49	0.272
620.69	0.291
620.89	0.170
621.09	0.391
621.29	0.083
621.49	0.330
621.69	0.144
621.89	0.442
622.09	0.299
622.29	0.341
622.48	0.189
622.68	0.391
622.88	0.398
623.08	0.326
623.28	0.273
623.48	0.090
623.68	0.152
623.88	0.253
624.08	0.172
624.28	0.151
624.48	0.304
624.67	0.225
624.87	0.168
625.07	-0.021
625.27	0.275
625.47	0.086
625.67	0.353
625.87	0.117
626.07	0.131
626.27	0.119
626.47	0.070
626.66	0.182
626.86	0.365
627.06	-0.016
627.26	0.129
627.46	0.298
627.66	0.147
627.86	0.313
628.06	0.463
628.25	0.243
628.45	0.383
628.65	0.218
628.85	-0.094
629.05	0.004
629.25	0.179
629.45	0.207
629.65	0.321
629.84	0.250
630.04	0.174
630.24	0.209
630.44	0.237
630.64	0.384
630.84	0.189
631.04	0.561
631.23	0.084
631.43	0.190
631.63	-0.061
631.83	0.165
632.03	0.237
632.23	0.072
632.42	0.203
632.62	0.196
632.82	0.253
633.02	0.154
633.22	0.089
633.42	0.181
633.62	0.218
633.81	0.201
634.01	-0.130
634.21	0.208
634.41	-0.084
634.61	0.136
634.80	0.020
635.00	0.104
635.20	0.131
635.40	-0.036
635.60	0.132
635.80	0.302
635.99	0.092
636.19	0.127
636.39	0.116
636.59	0.100
636.79	0.051
636.98	0.124
637.18	0.131
637.38	0.186
637.58	0.271
637.78	0.245
637.97	0.275
638.17	0.072
638.37	-0.107
638.57	0.190
638.77	0.309
638.96	0.107
639.16	0.227
639.36	0.127
639.56	0.111
639.76	0.302
639.95	0.374
640.15	0.252
640.35	0.362
640.55	0.122
640.75	-0.028
640.94	0.166
641.14	0.307
641.34	0.152
641.54	-0.020
641.73	0.223
641.93	0.250
642.13	0.080
642.33	0.084
642.53	0.155
642.72	-0.008
642.92	0.160
643.12	-0.008
643.32	0.020
643.51	0.028
643.71	0.068
643.91	0.028
644.11	0.064
644.30	0.139
644.50	0.190
644.70	0.075
644.90	0.190
645.09	0.170
645.29	-0.008
645.49	0.231
645.69	0.230
645.88	0.067
646.08	0.189
646.28	0.315
646.48	0.222
646.67	0.099
646.87	0.134
647.07	0.246
647.26	0.199
647.46	0.084
647.66	0.107
647.86	-0.059
648.05	0.303
648.25	0.240
648.45	0.114
648.65	0.020
648.84	0.184
649.04	0.059
649.24	0.169
649.43	0.336
649.63	0.362
649.83	0.341
650.03	0.335
650.22	0.126
650.42	0.210
650.62	0.158
650.81	0.024
651.01	0.154
651.21	0.201
651.40	0.324
651.60	0.153
651.80	0.150
652.00	-0.067
652.19	0.164
652.39	-0.008
652.59	0.059
652.78	0.215
652.98	0.099
653.18	-0.055
653.37	0.087
653.57	0.224
653.77	0.117
653.96	-0.047
654.16	0.216
654.36	0.039
654.55	0.093
654.75	0.186
654.95	0.180
655.14	0.345
655.34	0.277
655.54	0.047
655.73	0.154
655.93	0.329
656.13	-0.032
656.32	0.106
656.52	0.185
656.72	0.114
656.91	0.337
657.11	0.195
657.31	0.035
657.50	0.090
657.70	-0.031
657.90	0.082
658.09	-0.063
658.29	0.196
658.49	0.208
658.68	0.219
658.88	0.122
659.07	0.309
659.27	0.102
659.47	0.258
659.66	0.141
659.86	0.199
660.06	0.316
660.25	0.098
660.45	0.043
660.64	0.187
660.84	0.319
661.04	0.148
661.23	0.199
661.43	0.183
661.63	0.118
661.82	0.101
662.02	0.098
662.21	0.217
662.41	0.140
662.61	0.249
662.80	0.098
663.00	0.300
663.19	0.305
663.39	0.219
663.59	0.152
663.78	0.286
663.98	0.099
664.17	0.063
664.37	0.320
664.57	0.141
664.76	0.105
664.96	0.314
665.15	0.167
665.35	0.070
665.55	0.035
665.74	0.039
665.94	0.051
666.13	-0.008
666.33	0.285
666.53	0.128
666.72	0.149
666.92	0.094
667.11	0.350
667.31	0.114
667.50	0.078
667.70	0.150
667.90	0.223
668.09	0.085
668.29	-0.004
668.48	0.078
668.68	0.122
668.87	0.098
669.07	0.051
669.26	0.420
669.46	0.125
669.66	0.241
669.85	-0.079
670.05	0.204
670.24	0.292
670.44	0.274
670.63	0.238
670.83	0.365
671.02	0.283
671.22	0.234
671.42	-0.070
671.61	0.082
671.81	0.196
672.00	0.244
672.20	0.370
672.39	0.248
672.59	0.227
672.78	0.141
672.98	0.117
673.17	-0.055
673.37	0.095
673.56	0.110
673.76	0.276
673.95	0.340
674.15	-0.004
674.34	0.180
674.54	0.058
674.73	0.272
674.93	0.328
675.13	0.194
675.32	0.321
675.52	0.159
675.71	0.055
675.91	0.243
676.10	0.070
676.30	0.117
676.49	0.322
676.69	0.245
676.88	0.129
677.08	0.165
677.27	0.162
677.47	0.432
677.66	-0.113
677.86	0.089
678.05	0.139
678.24	0.016
678.44	0.047
678.63	0.118
678.83	0.216
679.02	0.157
679.22	0.256
679.41	0.019
679.61	-0.039
679.80	0.141
680.00	0.008
680.19	0.229
680.39	0.008
680.58	0.086
680.78	0.239
680.97	0.152
681.17	0.083
681.36	0.146
681.56	0.235
681.75	-0.047
681.94	0.118
682.14	0.264
682.33	-0.016
682.53	0.284
682.72	0.342
682.92	0.142
683.11	0.047
683.31	0.174
683.50	-0.016
683.69	0.067
683.89	0.118
684.08	0.264
684.28	0.331
684.47	0.221
684.67	0.067
684.86	0.288
685.06	0.235
685.25	0.095
685.44	0.087
685.64	0.271
685.83	0.323
686.03	0.218
686.22	-0.016
686.42	0.215
686.61	0.180
686.80	0.103
687.00	0.209
687.19	0.221
687.39	0.139
687.58	0.075
687.77	0.107
687.97	0.215
688.16	0.016
688.36	0.068
688.55	0.251
688.74	0.257
688.94	0.060
689.13	-0.044
689.33	0.287
689.52	0.036
689.71	0.100
689.91	0.203
690.10	0.207
690.30	0.032
690.49	0.168
690.68	0.180
690.88	0.211
691.07	0.083
691.27	0.321
691.46	0.253
691.65	-0.008
691.85	0.253
692.04	0.215
692.23	0.060
692.43	-0.012
692.62	0.100
692.82	0.395
693.01	0.195
693.20	0.369
693.40	0.223
693.59	0.080
693.78	0.072
693.98	0.016
694.17	0.205
694.36	0.362
694.56	0.247
694.75	0.176
694.94	0.163
695.14	0.293
695.33	0.083
695.53	0.096
695.72	0.298
695.91	0.204
696.11	-0.056
696.30	0.016
696.49	0.125
696.69	0.302
696.88	0.247
697.07	0.000
697.27	0.165
697.46	0.138
697.65	0.202
697.85	0.081
698.04	0.068
698.23	0.206
698.43	0.211
698.62	0.160
698.81	0.044
699.01	0.192
699.20	0.077
699.39	0.202
699.58	0.420
699.78	0.175
699.97	0.221
700.16	0.119
700.36	0.385
700.55	0.138
700.74	0.093
700.94	0.298
701.13	0.430
701.32	0.114
701.52	-0.008
701.71	0.065
701.90	0.188
702.09	-0.045
702.29	0.172
702.48	0.188
702.67	0.189
702.87	0.151
703.06	0.160
703.25	0.431
703.44	0.336
703.64	0.273
703.83	0.199
704.02	0.361
704.22	0.197
704.41	0.140
704.60	0.462
704.79	0.230
704.99	0.170
705.18	0.396
705.37	0.299
705.56	0.012
705.76	0.264
705.95	0.294
706.14	-0.004
706.33	0.162
706.53	0.158
706.72	0.241
706.91	0.128
707.11	0.220
707.30	0.137
707.49	0.527
707.68	0.178
707.88	0.050
708.07	0.192
708.26	0.157
708.45	0.206
708.64	0.494
708.84	0.263
709.03	0.659
709.22	0.146
709.41	0.148
709.61	0.131
709.80	0.466
709.99	0.163
710.18	0.172
710.38	0.242
710.57	0.013
710.76	0.233
710.95	0.407
711.14	0.339
711.34	0.245
711.53	0.195
711.72	0.475
711.91	0.275
712.11	0.258
712.30	0.262
712.49	0.188
712.68	0.302
712.87	0.111
713.07	0.241
713.26	0.369
713.45	0.471
713.64	0.491
713.83	0.259
714.03	0.322
714.22	0.191
714.41	0.464
714.60	0.085
714.79	0.302
714.99	0.372
715.18	0.170
715.37	0.085
715.56	0.366
715.75	0.260
715.94	0.271
716.14	0.094
716.33	0.280
716.52	0.306
716.71	0.363
716.90	0.311
717.10	0.219
717.29	0.397
717.48	0.353
717.67	0.254
717.86	0.329
718.05	-0.026
718.24	-0.009
718.44	0.241
718.63	0.380
718.82	0.519
719.01	0.295
719.20	0.461
719.39	-0.070
719.59	0.256
719.78	0.187
719.97	0.251
720.16	0.281
720.35	0.368
720.54	0.360
720.73	0.313
720.93	0.596
721.12	0.363
721.31	0.345
721.50	0.422
721.69	0.208
721.88	0.438
722.07	0.397
722.27	0.249
722.46	0.193
722.65	0.429
722.84	0.176
723.03	0.110
723.22	0.141
723.41	0.239
723.60	0.417
723.79	0.291
723.99	0.386
724.18	0.588
724.37	0.543
724.56	0.409
724.75	0.110
724.94	0.160
725.13	0.301
725.32	0.504
725.51	0.288
725.71	0.243
725.90	0.280
726.09	0.394
726.28	0.334
726.47	0.362
726.66	0.480
726.85	0.394
727.04	0.316
727.23	-0.080
727.42	0.206
727.61	0.263
727.81	0.076
728.00	0.315
728.19	0.462
728.38	0.018
728.57	0.117
728.76	0.344
728.95	0.459
729.14	0.387
729.33	0.390
729.52	0.333
729.71	0.645
729.90	0.206
730.09	0.354
730.28	0.418
730.48	0.470
730.67	0.489
730.86	0.334
731.05	0.529
731.24	0.272
731.43	0.318
731.62	0.291
731.81	0.350
732.00	0.238
732.19	0.439
732.38	0.465
732.57	0.410
732.76	0.464
732.95	0.518
733.14	0.462
733.33	0.239
733.52	0.328
733.71	0.564
733.90	0.413
734.09	0.429
734.28	0.314
734.47	0.271
734.66	0.291
734.85	0.279
735.04	0.317
735.23	0.187
735.42	0.400
735.61	0.504
735.81	0.486
736.00	0.360
736.19	0.449
736.38	0.489
736.57	0.336
736.76	0.554
736.95	0.181
737.14	0.462
737.33	0.431
737.52	0.480
737.71	0.437
737.90	0.409
738.09	0.498
738.28	0.361
738.47	0.088
738.66	0.566
738.85	0.093
739.04	0.343
739.22	0.545
739.41	0.228
739.60	0.345
739.79	0.441
739.98	0.251
740.17	0.438
740.36	0.494
740.55	0.402
740.74	0.444
740.93	-0.019
741.12	0.428
741.31	0.386
741.50	0.427
741.69	0.206
741.88	0.381
742.07	0.108
742.26	0.468
742.45	0.454
742.64	0.250
742.83	0.213
743.02	0.356
743.21	0.611
743.40	0.523
743.59	0.323
743.78	0.246
743.97	0.790
744.16	0.593
744.34	0.256
744.53	0.373
744.72	0.575
744.91	0.128
745.10	0.363
745.29	0.411
745.48	0.301
745.67	0.655
745.86	0.575
746.05	0.196
746.24	0.616
746.43	0.573
746.62	0.574
746.81	0.148
747.00	0.615
747.18	0.695
747.37	0.523
747.56	0.299
747.75	0.323
747.94	0.468
748.13	0.828
748.32	0.634
748.51	0.452
748.70	0.543
748.89	0.263
749.08	0.498
749.26	0.425
749.45	0.606
749.64	0.359
749.83	0.613
750.02	0.763
750.21	0.516
750.40	0.647
750.59	0.602
750.78	0.552
750.96	0.290
751.15	0.499
751.34	0.660
751.53	0.374
751.72	0.413
751.91	0.407
752.10	0.255
752.29	0.590
752.47	0.495
752.66	0.459
752.85	0.476
753.04	0.489
753.23	0.599
753.42	0.148
753.61	0.450
753.80	0.824
753.98	0.618
754.17	0.563
754.36	0.706
754.55	0.230
754.74	0.397
754.93	0.462
755.12	0.452
755.30	0.444
755.49	0.591
755.68	0.538
755.87	0.399
756.06	0.698
756.25	0.346
756.43	0.463
756.62	0.420
756.81	0.705
757.00	0.655
757.19	0.423
757.38	0.388
757.56	0.566
757.75	0.711
757.94	0.271
758.13	0.727
758.32	0.499
758.51	0.419
758.69	0.555
758.88	0.618
759.07	0.716
759.26	0.311
759.45	0.547
759.63	0.666
759.82	0.737
760.01	0.466
760.20	0.576
760.39	0.390
760.57	0.335
760.76	0.718
760.95	0.411
761.14	0.423
761.33	0.621
761.51	0.686
761.70	0.506
761.89	0.658
762.08	0.611
762.27	0.676
762.45	0.516
762.64	0.436
762.83	0.762
763.02	0.624
763.21	0.569
763.39	0.371
763.58	0.626
763.77	0.382
763.96	0.192
764.14	0.822
764.33	0.474
764.52	0.553
764.71	0.417
764.89	0.563
765.08	0.602
765.27	0.609
765.46	0.883
765.65	0.571
765.83	0.806
766.02	0.381
766.21	0.526
766.40	0.260
766.58	0.675
766.77	0.347
766.96	0.431
767.15	0.455
767.33	0.488
767.52	0.662
767.71	0.629
767.90	0.498
768.08	0.632
768.27	0.324
768.46	0.392
768.64	0.783
768.83	0.528
769.02	0.526
769.21	0.792
769.39	0.607
769.58	0.740
769.77	0.705
769.96	0.138
770.14	0.756
770.33	0.519
770.52	0.789
770.70	0.265
770.89	0.540
771.08	0.494
771.27	0.884
771.45	0.672
771.64	0.395
771.83	0.868
772.01	0.506
772.20	0.723
772.39	0.355
772.57	0.366
772.76	0.402
772.95	0.648
773.14	0.649
773.32	0.377
773.51	0.476
773.70	0.409
773.88	0.598
774.07	0.266
774.26	0.703
774.44	0.550
774.63	0.344
774.82	0.369
775.00	0.748
775.19	0.451
775.38	0.738
775.56	0.580
775.75	0.696
775.94	0.456
776.12	0.408
776.31	0.623
776.50	0.703
776.68	0.812
776.87	0.553
777.06	0.582
777.24	0.714
777.43	0.801
777.62	0.715
777.80	0.649
777.99	0.786
778.18	0.875
778.36	0.477
778.55	0.681
778.74	1.185
778.92	0.580
779.11	0.619
779.29	0.857
779.48	0.826
779.67	0.687
779.85	0.557
780.04	0.756
780.23	0.532
780.41	1.135
780.60	0.556
780.79	0.843
780.97	0.877
781.16	0.562
781.34	0.615
781.53	0.659
781.72	0.575
781.90	0.704
782.09	0.470
782.28	0.713
782.46	0.773
782.65	0.662
782.83	0.868
783.02	0.599
783.21	0.670
783.39	0.644
783.58	0.793
783.76	0.510
783.95	0.869
784.14	0.493
784.32	0.328
784.51	0.738
784.69	0.627
784.88	1.017
785.06	0.424
785.25	0.553
785.44	1.362
785.62	0.783
785.81	0.499
785.99	0.624
786.18	0.864
786.37	1.038
786.55	0.717
786.74	1.413
786.92	1.191
787.11	0.631
787.29	0.559
787.48	1.334
787.67	0.871
787.85	1.022
788.04	0.719
788.22	0.874
788.41	1.241
788.59	1.152
788.78	0.807
788.96	0.830
789.15	0.862
789.34	0.965
789.52	0.671
789.71	0.985
789.89	0.872
790.08	0.885
790.26	0.852
790.45	0.756
790.63	0.792
790.82	0.948
791.00	1.537
791.19	0.909
791.38	0.916
791.56	1.005
791.75	0.650
791.93	0.620
792.12	0.846
792.30	1.117
792.49	0.817
792.67	1.150
792.86	1.088
793.04	1.045
793.23	1.004
793.41	1.329
793.60	1.205
793.78	0.977
793.97	1.134
794.15	1.040
794.34	0.766
794.52	0.519
794.71	1.147
794.89	1.285
795.08	1.542
795.26	1.113
795.45	1.188
795.63	0.889
795.82	0.926
796.00	0.845
796.19	0.515
796.37	1.306
796.56	0.912
796.74	1.076
796.93	1.195
797.11	1.272
797.30	0.848
797.48	1.051
797.67	1.077
797.85	1.044
798.04	1.138
798.22	0.859
798.41	0.914
798.59	0.871
798.77	0.895
798.96	0.639
799.14	0.999
799.33	0.896
799.51	0.939
799.70	0.713
799.88	1.105
800.07	0.857
800.25	0.671
800.44	1.031
800.62	0.630
800.80	1.007
800.99	1.134
801.17	0.816
801.36	0.967
801.54	1.106
801.73	0.825
801.91	0.722
802.10	1.093
802.28	0.776
802.46	1.173
802.65	0.964
802.83	0.705
803.02	0.971
803.20	0.939
803.39	0.907
803.57	0.673
803.75	0.903
803.94	1.182
804.12	1.056
804.31	0.617
804.49	0.769
804.67	0.605
804.86	1.231
805.04	1.065
805.23	0.790
805.41	0.940
805.59	1.029
805.78	0.728
805.96	0.582
806.15	1.102
806.33	0.576
806.51	0.920
806.70	0.805
806.88	0.987
807.07	1.240
807.25	0.765
807.43	0.627
807.62	1.173
807.80	1.255
807.99	0.865
808.17	0.775
808.35	1.161
808.54	1.327
808.72	1.157
808.90	1.122
809.09	0.784
809.27	1.220
809.46	0.871
809.64	0.784
809.82	1.141
810.01	0.638
810.19	1.348
810.37	1.213
810.56	0.983
810.74	1.028
810.92	1.317
811.11	1.492
811.29	0.576
811.48	0.896
811.66	0.875
811.84	1.386
812.03	0.974
812.21	0.693
812.39	0.816
812.58	0.471
812.76	1.653
812.94	0.733
813.13	0.791
813.31	1.010
813.49	0.960
813.68	0.761
813.86	1.012
814.04	1.228
814.23	1.294
814.41	1.015
814.59	0.780
814.78	0.975
814.96	1.120
815.14	1.080
815.33	0.953
815.51	1.166
815.69	0.817
815.87	0.446
816.06	1.074
816.24	0.999
816.42	0.774
816.61	0.816
816.79	1.426
816.97	1.095
817.16	1.099
817.34	0.726
817.52	0.786
817.70	1.406
817.89	0.939
818.07	1.102
818.25	1.042
818.44	1.084
818.62	1.198
818.80	0.763
818.98	1.407
819.17	1.572
819.35	0.910
819.53	0.879
819.72	0.776
819.90	1.393
820.08	0.862
820.26	1.209
820.45	1.169
820.63	1.589
820.81	1.143
820.99	1.164
821.18	1.287
821.36	1.393
821.54	1.057
821.73	1.039
821.91	0.643
822.09	1.116
822.27	1.293
822.46	1.297
822.64	1.024
822.82	1.586
823.00	0.902
823.19	1.039
823.37	1.282
823.55	0.693
823.73	0.872
823.91	0.789
824.10	0.904
824.28	1.228
824.46	1.010
824.64	0.660
824.83	0.950
825.01	0.925
825.19	1.196
825.37	1.132
825.56	1.091
825.74	1.145
825.92	0.979
826.10	0.628
826.28	1.487
826.47	1.300
826.65	1.622
826.83	1.221
827.01	1.195
827.19	1.580
827.38	1.238
827.56	1.431
827.74	1.502
827.92	1.709
828.10	1.497
828.29	1.340
828.47	1.069
828.65	1.154
828.83	1.336
829.01	1.238
829.20	0.943
829.38	1.268
829.56	1.548
829.74	0.906
829.92	1.459
830.10	1.568
830.29	1.581
830.47	1.511
830.65	0.827
830.83	0.842
831.01	1.620
831.20	0.969
831.38	1.150
831.56	2.073
831.74	1.301
831.92	1.317
832.10	1.306
832.29	1.802
832.47	1.397
832.65	0.964
832.83	1.060
833.01	1.193
833.19	1.291
833.37	1.451
833.56	1.674
833.74	1.640
833.92	1.357
834.10	1.057
834.28	0.971
834.46	1.855
834.64	1.686
834.83	1.284
835.01	1.773
835.19	1.550
835.37	1.130
835.55	0.733
835.73	1.386
835.91	1.674
836.09	1.456
836.28	1.391
836.46	1.528
836.64	1.999
836.82	1.717
837.00	1.607
837.18	1.424
837.36	1.636
837.54	1.507
837.72	1.525
837.91	1.474
838.09	1.774
838.27	1.860
838.45	1.982
838.63	1.315
838.81	2.159
838.99	1.730
839.17	1.504
839.35	2.080
839.53	1.667
839.72	1.945
839.90	2.264
840.08	2.411
840.26	2.915
840.44	3.147
840.62	2.181
840.80	2.866
840.98	3.348
841.16	2.673
841.34	3.553
841.52	3.291
841.70	3.492
841.89	3.210
842.07	3.622
842.25	4.391
842.43	4.213
842.61	4.894
842.79	4.476
842.97	4.156
843.15	5.064
843.33	4.908
843.51	4.865
843.69	5.182
843.87	4.748
844.05	5.801
844.23	5.596
844.41	5.879
844.59	5.545
844.77	5.935
844.95	6.070
845.13	5.568
845.31	6.705
845.50	6.061
845.68	5.922
845.86	6.233
846.04	6.841
846.22	6.612
846.40	6.313
846.58	6.557
846.76	7.078
846.94	6.645
847.12	6.883
847.30	7.377
847.48	7.644
847.66	7.820
847.84	7.498
848.02	7.673
848.20	8.096
848.38	7.720
848.56	7.979
848.74	6.929
848.92	7.909
849.10	8.337
849.28	8.618
849.46	9.045
849.64	7.897
849.82	8.639
850.00	8.455
850.18	9.024
850.36	8.827
850.54	9.537
850.72	8.573
850.90	9.029
851.08	8.771
851.26	9.092
851.44	9.040
851.62	9.193
851.80	9.307
851.98	9.784
852.16	9.538
852.34	9.725
852.52	9.809
852.70	9.542
852.87	9.967
853.05	9.960
853.23	9.640
853.41	10.141
853.59	9.720
853.77	9.572
853.95	10.687
854.13	9.246
854.31	9.858
854.49	9.969
854.67	9.805
854.85	9.780
855.03	10.405
855.21	10.276
855.39	10.235
855.57	10.249
855.75	9.398
855.93	9.686
856.11	10.252
856.28	10.015
856.46	9.671
856.64	10.104
856.82	10.061
857.00	10.632
857.18	10.051
857.36	10.213
857.54	10.425
857.72	10.653
857.90	10.124
858.08	10.535
858.26	10.151
858.44	10.501
858.61	10.120
858.79	10.538
858.97	11.211
859.15	10.602
859.33	10.468
859.51	10.531
859.69	10.542
859.87	10.270
860.05	10.021
860.23	10.588
860.40	10.507
860.58	9.936
860.76	10.880
860.94	11.242
861.12	10.683
861.30	10.484
861.48	10.764
861.66	11.322
861.84	10.465
862.01	11.632
862.19	10.627
862.37	10.806
862.55	11.651
862.73	11.673
862.91	11.742
863.09	12.245
863.27	12.335
863.44	12.126
863.62	12.140
863.80	13.394
863.98	12.814
864.16	12.733
864.34	12.970
864.52	13.527
864.69	13.196
864.87	13.738
865.05	13.978
865.23	14.639
865.41	13.904
865.59	14.445
865.76	14.492
865.94	15.521
866.12	15.954
866.30	16.177
866.48	16.417
866.66	16.941
866.83	18.123
867.01	17.702
867.19	18.021
867.37	19.121
867.55	19.154
867.73	19.255
867.90	19.229
868.08	19.545
868.26	20.485
868.44	20.260
868.62	20.774
868.79	20.544
868.97	21.865
869.15	20.520
869.33	21.268
869.51	22.202
869.69	22.791
869.86	22.396
870.04	23.018
870.22	23.431
870.40	24.358
870.57	23.540
870.75	24.106
870.93	23.579
871.11	24.983
871.29	24.472
871.46	23.734
871.64	24.602
871.82	25.187
872.00	26.021
872.18	25.172
872.35	26.469
872.53	26.814
872.71	27.219
872.89	27.068
873.06	26.101
873.24	27.874
873.42	27.833
873.60	27.418
873.77	27.599
873.95	28.413
874.13	28.093
874.31	27.965
874.49	28.949
874.66	28.301
874.84	28.115
875.02	28.911
875.20	28.940
875.37	29.606
875.55	30.945
875.73	29.619
875.91	31.057
876.08	30.329
876.26	30.181
876.44	30.604
876.61	30.347
876.79	30.371
876.97	30.348
877.15	31.147
877.32	31.049
877.50	30.516
877.68	31.378
877.86	31.438
878.03	31.175
878.21	30.870
878.39	31.002
878.56	30.497
878.74	30.876
878.92	29.888
879.10	30.129
879.27	30.182
879.45	30.051
879.63	30.161
879.80	30.663
879.98	31.551
880.16	30.985
880.34	30.977
880.51	30.967
880.69	30.781
880.87	30.295
881.04	30.780
881.22	30.478
881.40	30.478
881.57	30.306
881.75	30.749
881.93	30.120
882.10	30.680
882.28	29.211
882.46	29.641
882.63	29.343
882.81	30.552
882.99	29.328
883.16	30.313
883.34	30.122
883.52	30.891
883.69	29.291
883.87	29.873
884.05	29.552
884.22	29.683
884.40	30.728
884.58	30.153
884.75	29.459
884.93	30.461
885.11	30.373
885.28	29.590
885.46	29.872
885.64	30.404
885.81	30.290
885.99	31.140
886.17	31.086
886.34	31.873
886.52	31.659
886.70	30.782
886.87	31.603
887.05	31.619
887.22	32.403
887.40	33.002
887.58	32.921
887.75	34.256
887.93	33.234
888.11	33.300
888.28	34.999
888.46	33.116
888.63	34.870
888.81	34.850
888.99	35.711
889.16	36.039
889.34	36.216
889.51	36.518
889.69	36.287
889.87	37.591
890.04	36.186
890.22	36.843
890.39	35.433
890.57	37.306
890.75	38.042
890.92	39.033
891.10	38.403
891.27	38.555
891.45	38.300
891.63	40.795
891.80	40.262
891.98	39.978
892.15	40.497
892.33	39.642
892.51	40.373
892.68	39.631
892.86	40.736
893.03	42.089
893.21	41.912
893.38	41.799
893.56	42.083
893.74	43.155
893.91	42.685
894.09	41.377
894.26	43.217
894.44	42.671
894.61	42.898
894.79	43.357
894.96	44.233
895.14	44.254
895.32	46.113
895.49	44.901
895.67	44.179
895.84	46.029
896.02	46.194
896.19	44.690
896.37	45.183
896.54	46.127
896.72	45.645
896.89	46.617
897.07	46.185
897.25	44.800
897.42	46.467
897.60	45.153
897.77	45.239
897.95	45.744
898.12	44.753
898.30	45.006
898.47	44.605
898.65	44.146
898.82	45.134
899.00	44.775
899.17	45.170
899.35	44.988
899.52	44.730
899.70	43.280
899.87	43.140
900.05	43.948
900.22	43.526
900.40	42.479
900.57	41.465
900.75	43.124
900.92	40.801
901.10	41.046
901.27	41.471
901.45	40.197
901.62	41.332
901.80	40.350
901.97	39.851
902.15	38.711
902.32	37.713
902.50	38.176
902.67	37.146
902.85	37.567
903.02	38.185
903.20	38.175
903.37	36.079
903.54	36.871
903.72	35.191
903.89	34.688
904.07	35.036
904.24	34.682
904.42	33.150
904.59	33.521
904.77	32.901
904.94	31.647
905.12	32.435
905.29	31.184
905.47	30.246
905.64	29.647
905.81	30.564
905.99	29.977
906.16	27.949
906.34	30.579
906.51	28.792
906.69	29.299
906.86	30.096
907.03	27.578
907.21	27.238
907.38	28.007
907.56	28.373
907.73	28.521
907.91	27.111
908.08	27.830
908.25	27.104
908.43	27.227
908.60	28.265
908.78	28.141
908.95	27.631
909.13	28.629
909.30	27.978
909.47	26.167
909.65	28.319
909.82	28.509
910.00	25.961
910.17	25.523
910.34	26.721
910.52	25.795
910.69	24.701
910.87	25.785
911.04	25.238
911.21	25.435
911.39	25.077
911.56	26.084
911.73	25.438
911.91	25.232
912.08	25.365
912.26	24.868
912.43	23.933
912.60	25.631
912.78	24.492
912.95	24.769
913.13	23.215
913.30	25.299
913.47	24.957
913.65	23.513
913.82	22.740
913.99	23.876
914.17	24.018
914.34	23.643
914.51	22.481
914.69	22.351
914.86	23.084
915.03	22.238
915.21	22.498
915.38	21.365
915.56	22.145
915.73	21.478
915.90	21.781
916.08	21.017
916.25	21.940
916.42	21.356
916.60	20.957
916.77	20.780
916.94	20.968
917.12	20.070
917.29	19.081
917.46	20.090
917.64	18.564
917.81	19.777
917.98	19.163
918.16	18.801
918.33	19.675
918.50	19.218
918.67	17.031
918.85	19.200
919.02	18.142
919.19	17.926
919.37	16.752
919.54	16.909
919.71	16.792
919.89	16.023
920.06	15.992
920.23	16.784
920.41	15.990
920.58	14.595
920.75	16.297
920.92	15.005
921.10	14.029
921.27	13.697
921.44	12.947
921.62	13.741
921.79	13.155
921.96	13.620
922.13	12.545
922.31	11.978
922.48	13.163
922.65	12.684
922.82	12.192
923.00	13.070
923.17	11.543
923.34	12.875
923.52	11.836
923.69	10.774
923.86	11.890
924.03	11.057
924.21	10.800
924.38	11.910
924.55	11.171
924.72	11.648
924.90	12.564
925.07	11.966
925.24	12.243
925.41	10.822
925.59	11.793
925.76	11.718
925.93	11.825
926.10	10.834
926.28	11.378
926.45	13.180
926.62	9.882
926.79	12.117
926.96	11.109
927.14	11.050
927.31	10.575
927.48	10.518
927.65	10.707
927.83	10.782
928.00	9.944
928.17	9.313
928.34	8.815
928.51	10.313
928.69	10.110
928.86	9.573
929.03	10.588
929.20	11.385
929.37	8.368
929.55	9.236
929.72	9.563
929.89	9.683
930.06	10.429
930.23	9.477
930.41	10.158
930.58	9.973
930.75	10.310
930.92	10.655
931.09	8.960
931.27	8.992
931.44	10.639
931.61	7.917
931.78	8.701
931.95	8.766
932.12	8.743
932.30	8.883
932.47	8.307
932.64	8.632
932.81	9.126
932.98	8.482
933.16	8.326
933.33	8.644
933.50	9.109
933.67	8.518
933.84	7.824
934.01	7.373
934.18	9.058
934.36	8.874
934.53	9.115
934.70	8.928
934.87	7.019
935.04	5.771
935.21	7.046
935.38	6.459
935.56	7.833
935.73	7.754
935.90	6.847
936.07	6.704
936.24	6.890
936.41	6.680
936.58	5.829
936.76	5.836
936.93	7.308
937.10	5.762
937.27	5.319
937.44	5.650
937.61	4.793
937.78	5.234
937.95	4.403
938.13	4.395
938.30	5.364
938.47	4.319
938.64	5.393
938.81	3.709
938.98	4.555
939.15	5.561
939.32	4.179
939.49	5.242
939.66	4.719
939.84	4.275
940.01	3.471
940.18	3.506
940.35	4.122
940.52	3.778
940.69	4.773
940.86	4.763
941.03	4.750
941.20	5.783
941.37	4.058
941.54	3.264
941.71	5.216
941.89	4.850
942.06	2.711
942.23	4.937
942.40	6.535
942.57	6.229
942.74	4.818
942.91	8.030
943.08	5.605
943.25	4.357
943.42	3.962
943.59	5.416
943.76	5.842
943.93	4.867
944.10	5.996
944.27	6.692
944.44	5.771
944.61	7.746
944.79	7.167
944.96	6.991
945.13	8.788
945.30	5.070
945.47	6.111
945.64	8.364
945.81	8.087
945.98	7.851
946.15	9.126
946.32	6.721
946.49	8.846
946.66	8.399
946.83	9.329
947.00	10.067
947.17	11.117
947.34	9.393
947.51	9.239
947.68	10.664
947.85	10.119
948.02	11.224
948.19	6.891
948.36	11.795
948.53	9.257
948.70	9.919
948.87	11.774
949.04	10.252
949.21	8.627
949.38	11.188
949.55	11.703
949.72	9.635
949.89	12.647
950.06	11.555
950.23	12.436
950.40	10.211
950.57	13.377
950.74	10.998
950.91	10.876
951.08	13.418
951.25	11.411
951.42	11.728
951.59	12.417
951.76	11.227
951.93	12.048
952.10	12.462
952.27	11.862
952.44	14.263
952.61	14.096
952.77	12.572
952.94	13.348
953.11	14.903
953.28	13.116
953.45	12.091
953.62	11.859
953.79	11.657
953.96	14.500
954.13	13.108
954.30	11.792
954.47	15.114
954.64	13.931
954.81	14.545
954.98	12.361
955.15	13.520
955.32	17.457
955.49	12.257
955.65	14.522
955.82	14.310
955.99	14.684
956.16	15.292
956.33	15.677
956.50	15.325
956.67	13.527
956.84	15.509
957.01	16.253
957.18	13.776
957.35	15.846
957.52	16.113
957.68	14.820
957.85	16.708
958.02	18.153
958.19	15.244
958.36	16.522
958.53	15.499
958.70	17.435
958.87	15.607
959.04	16.439
959.21	14.413
959.37	15.994
959.54	19.726
959.71	15.037
959.88	16.336
960.05	17.734
960.22	16.077
960.39	15.946
960.56	17.341
960.72	19.195
960.89	19.818
961.06	17.923
961.23	18.270
961.40	18.444
961.57	17.460
961.74	17.297
961.90	19.612
962.07	19.213
962.24	18.216
962.41	20.171
962.58	18.678
962.75	16.613
962.92	17.640
963.08	19.839
963.25	19.284
963.42	18.508
963.59	20.071
963.76	19.121
963.93	22.621
964.10	22.334
964.26	19.910
964.43	18.434
964.60	21.817
964.77	21.859
964.94	19.504
965.10	23.699
965.27	24.446
965.44	25.064
965.61	22.250
965.78	24.028
965.95	26.037
966.11	26.466
966.28	25.795
966.45	24.235
966.62	27.904
966.79	26.584
966.95	26.701
967.12	31.631
967.29	31.787
967.46	30.703
967.63	29.737
967.79	29.504
967.96	29.480
968.13	29.638
968.30	32.707
968.47	30.585
968.63	32.154
968.80	34.066
968.97	37.274
969.14	31.216
969.31	34.129
969.47	36.269
969.64	31.439
969.81	33.458
969.98	37.894
970.14	36.540
970.31	37.167
970.48	36.313
970.65	40.709
970.81	34.267
970.98	38.337
971.15	37.195
971.32	38.517
971.48	36.510
971.65	36.758
971.82	37.041
971.99	36.865
972.15	38.695
972.32	38.597
972.49	37.729
972.66	40.178
972.82	39.462
972.99	36.301
973.16	42.780
973.33	41.740
973.49	42.202
973.66	39.286
973.83	39.326
974.00	44.052
974.16	41.407
974.33	40.355
974.50	40.337
974.67	37.556
974.83	40.412
975.00	42.336
975.17	38.922
975.33	41.437
975.50	43.577
975.67	43.022
975.84	43.296
976.00	43.724
976.17	46.880
976.34	45.686
976.50	40.757
976.67	45.079
976.84	43.047
977.00	44.018
977.17	40.934
977.34	47.480
977.50	44.158
977.67	45.095
977.84	46.132
978.01	46.254
978.17	44.807
978.34	47.042
978.51	43.824
978.67	46.905
978.84	42.490
979.01	43.792
979.17	45.659
979.34	41.088
979.51	43.027
979.67	43.984
979.84	49.410
980.01	44.689
980.17	44.779
980.34	45.423
980.51	41.541
980.67	43.769
980.84	45.804
981.01	46.295
981.17	47.146
981.34	56.230
981.50	47.281
981.67	46.221
981.84	47.372
982.00	45.862
982.17	42.963
982.34	46.283
982.50	47.245
982.67	47.199
982.84	49.749
983.00	45.874
983.17	47.786
983.33	47.419
983.50	48.608
983.67	48.060
983.83	44.848
984.00	51.997
984.17	51.180
984.33	51.158
984.50	51.185
984.66	50.167
984.83	57.104
985.00	51.404
985.16	49.968
985.33	50.736
985.49	56.630
985.66	56.918
985.83	54.263
985.99	55.548
986.16	54.880
986.32	54.679
986.49	57.194
986.66	56.166
986.82	56.633
986.99	55.658
987.15	58.345
987.32	56.087
987.49	55.831
987.65	55.195
987.82	59.737
987.98	57.753
988.15	59.097
988.31	62.868
988.48	60.834
988.65	60.740
988.81	58.522
988.98	57.861
989.14	55.419
989.31	60.988
989.47	62.297
989.64	61.453
989.80	63.879
989.97	65.132
990.14	60.241
990.30	57.090
990.47	59.464
990.63	67.222
990.80	58.865
990.96	67.048
991.13	62.117
991.29	69.151
991.46	63.493
991.62	66.858
991.79	68.514
991.95	62.807
992.12	66.639
992.29	66.919
992.45	70.322
992.62	62.586
992.78	71.723
992.95	67.470
993.11	68.303
993.28	63.833
993.44	62.738
993.61	66.239
993.77	63.696
993.94	67.459
994.10	66.464
994.27	67.828
994.43	65.592
994.60	66.605
994.76	66.901
994.93	63.628
995.09	74.027
995.26	71.717
995.42	69.265
995.59	72.587
995.75	72.364
995.92	69.251
996.08	73.872
996.25	68.957
996.41	66.514
996.58	74.205
996.74	66.967
996.91	72.417
997.07	70.425
997.23	72.159
997.40	63.971
997.56	68.134
997.73	69.356
997.89	68.119
998.06	68.903
998.22	59.539
998.39	66.636
998.55	68.517
998.72	73.173
998.88	65.147
999.05	67.078
999.21	66.028
999.37	64.343
999.54	68.876
999.70	71.609
999.87	72.615
1000.03	73.792
1000.20	62.156
1000.36	67.113
1000.52	68.326
1000.69	70.754
1000.85	67.247
1001.02	67.340
1001.18	68.688
1001.35	67.329
1001.51	65.925
1001.67	70.233
1001.84	67.333
1002.00	65.757
1002.17	63.277
1002.33	61.641
1002.50	68.341
1002.66	63.341
1002.82	58.588
1002.99	61.503
1003.15	68.590
1003.32	68.505
1003.48	63.593
1003.64	64.769
1003.81	63.425
1003.97	57.512
1004.14	63.731
1004.30	63.280
1004.46	65.589
1004.63	63.337
1004.79	55.809
1004.95	62.516
1005.12	66.289
1005.28	66.746
1005.45	70.061
1005.61	60.096
1005.77	58.824
1005.94	69.210
1006.10	58.942
1006.26	61.921
1006.43	56.885
1006.59	58.301
1006.76	57.775
1006.92	68.588
1007.08	72.080
1007.25	65.379
1007.41	58.801
1007.57	60.820
1007.74	65.762
1007.90	64.613
1008.06	58.759
1008.23	57.311
1008.39	69.440
1008.55	69.987
1008.72	60.485
1008.88	69.970
1009.04	67.970
1009.21	64.539
1009.37	61.723
1009.53	67.547
1009.70	65.828
1009.86	58.392
1010.02	56.031
1010.19	57.845
1010.35	63.407
1010.51	67.647
1010.68	69.102
1010.84	60.979
1011.00	65.116
1011.17	61.782
1011.33	64.134
1011.49	59.206
1011.66	65.249
1011.82	72.048
1011.98	66.190
1012.14	61.578
1012.31	55.015
1012.47	68.000
1012.63	69.431
1012.80	63.790
1012.96	63.880
1013.12	55.974
1013.29	59.507
1013.45	66.729
1013.61	62.521
1013.77	69.495
1013.94	66.454
1014.10	71.278
1014.26	69.686
1014.43	70.132
1014.59	72.994
1014.75	68.959
1014.91	74.229
1015.08	65.649
1015.24	69.014
1015.40	70.833
1015.56	70.336
1015.73	73.898
1015.89	73.713
1016.05	60.662
1016.21	60.739
1016.38	81.022
1016.54	74.717
1016.70	65.923
1016.86	84.190
1017.03	75.546
1017.19	66.906
1017.35	63.135
1017.51	58.933
1017.68	64.609
1017.84	71.545
1018.00	64.547
1018.16	71.402
1018.33	90.150
1018.49	78.870
1018.65	85.843
1018.81	81.390
1018.97	71.000
1019.14	78.903
1019.30	79.952
1019.46	78.472
1019.62	68.502
1019.79	70.968
1019.95	62.022
1020.11	91.724
1020.27	75.319
1020.43	70.878
1020.60	77.123
1020.76	81.457
1020.92	81.174
1021.08	78.202
1021.24	67.130
1021.41	87.135
1021.57	78.960
1021.73	72.794
1021.89	80.089
1022.05	89.848
1022.21	84.433
1022.38	64.055
1022.54	77.887
1022.70	90.133
1022.86	71.230
1023.02	77.696
1023.19	92.593
1023.35	83.598
1023.51	68.810
1023.67	64.136
1023.83	79.666
1023.99	110.976
1024.16	90.683
1024.32	68.059
1024.48	75.783
1024.64	81.818
1024.80	97.230
1024.96	103.217
1025.12	96.648
1025.29	78.851
1025.45	90.031
1025.61	99.128
1025.77	66.313
1025.93	87.023
1026.09	105.056
1026.26	89.320
1026.42	71.582
1026.58	88.961
1026.74	111.070
1026.90	80.000
1027.06	73.567
1027.22	86.239
1027.38	108.125
1027.55	112.448
1027.71	87.821
1027.87	88.154
1028.03	96.091
1028.19	89.706
1028.35	111.638
1028.51	97.080
1028.67	87.018
1028.83	92.481
1029.00	79.775
1029.16	89.744
1029.32	92.181
1029.48	81.618
1029.64	79.801
1029.80	85.614
1029.96	81.470
1030.12	88.776
1030.28	88.176
1030.44	95.273
1030.61	119.922
1030.77	89.683
1030.93	92.015
1031.09	97.059
1031.25	110.233
1031.41	103.365
1031.57	79.853
1031.73	112.832
1031.89	99.592
1032.05	69.478
1032.21	99.552
1032.37	93.416
1032.53	90.000
1032.69	97.942
1032.86	110.556
1033.02	110.194
1033.18	93.827
1033.34	113.021
1033.50	79.487
1033.66	122.549
1033.82	102.165
1033.98	98.298
1034.14	123.810
1034.30	87.611
1034.46	101.688
1034.62	100.585
1034.78	90.583
1034.94	91.829
1035.10	117.500
1035.26	56.897
1035.42	112.941
1035.58	101.829
1035.74	78.829
1035.90	100.000
1036.06	98.537
1036.22	80.769
1036.38	114.085
1036.54	112.150
1036.70	85.714
1036.86	98.295
1037.02	87.586
1037.18	83.333
1037.34	94.286
1037.50	136.022
1037.66	132.168
1037.82	90.338
1037.98	86.294
1038.14	150.877
1038.30	141.346
1038.46	131.757
1038.62	85.279
1038.78	98.437
1038.94	110.937
1039.10	76.720
1039.26	81.437
1039.42	149.074
1039.58	88.830
1039.74	81.081
1039.90	87.821
1040.06	130.392
>>>>>End Processed Spectral Data<<<<<
