SpectraSuite Data File
++++++++++++++++++++++++++++++++++++
Date: Mon Mar 27 20:06:00 EEST 2017
User: TheoProf
Dark Spectrum Present: Yes
Reference Spectrum Present: Yes
Number of Sampled Component Spectra: 1
Spectrometers: USB4C02475
Integration Time (usec): 426341 (USB4C02475)
Spectra Averaged: 1 (USB4C02475)
Boxcar Smoothing: 0 (USB4C02475)
Correct for Electrical Dark: No (USB4C02475)
Strobe/Lamp Enabled: No (USB4C02475)
Correct for Detector Non-linearity: No (USB4C02475)
Correct for Stray Light: No (USB4C02475)
Number of Pixels in Processed Spectrum: 3648
>>>>>Begin Processed Spectral Data<<<<<
344.91	85.294
345.13	85.294
345.35	85.294
345.57	0.000
345.79	66.667
346.00	-568.421
346.22	-244.737
346.44	916.667
346.66	1458.333
346.87	311.667
347.09	0.000
347.31	-715.385
347.53	-203.571
347.74	-57.812
347.96	-129.167
348.18	425.000
348.40	1050.000
348.61	-488.000
348.83	-193.750
349.05	-438.095
349.27	121.429
349.48	-683.333
349.70	609.524
349.92	1150.000
350.14	-428.571
350.35	2400.000
350.57	395.455
350.79	295.238
351.01	232.653
351.22	332.432
351.44	-1257.143
351.66	155.556
351.87	413.514
352.09	150.746
352.31	164.865
352.53	403.333
352.74	137.681
352.96	131.579
353.18	187.500
353.40	170.213
353.61	460.870
353.83	183.099
354.05	362.500
354.26	-3700.000
354.48	1300.000
354.70	-350.000
354.92	98.630
355.13	260.714
355.35	-1209.091
355.57	-11.111
355.78	106.579
356.00	716.667
356.22	364.516
356.44	3850.000
356.65	280.000
356.87	970.000
357.09	875.000
357.30	439.130
357.52	114.286
357.74	833.333
357.95	156.250
358.17	-925.000
358.39	-231.250
358.60	2625.000
358.82	233.333
359.04	165.517
359.26	248.936
359.47	255.556
359.69	278.571
359.91	270.968
360.12	302.632
360.34	-963.636
360.56	707.143
360.77	-1240.000
360.99	-1072.727
361.21	235.556
361.42	-5166.667
361.64	-1100.000
361.86	389.286
362.07	408.333
362.29	316.667
362.51	251.429
362.72	635.000
362.94	187.500
363.16	276.667
363.37	285.000
363.59	232.857
363.81	235.135
364.02	568.750
364.24	8000.000
364.46	200.000
364.67	237.037
364.89	413.636
365.11	0.000
365.32	426.667
365.54	-343.750
365.76	-142.857
365.97	291.304
366.19	444.444
366.41	126.923
366.62	201.818
366.84	136.250
367.05	318.182
367.27	3866.667
367.49	200.000
367.70	145.652
367.92	329.268
368.14	107.692
368.35	361.538
368.57	146.988
368.79	70.330
369.00	192.982
369.22	278.000
369.43	148.352
369.65	1757.143
369.87	490.909
370.08	191.667
370.30	250.000
370.51	376.923
370.73	172.727
370.95	272.727
371.16	580.000
371.38	405.000
371.60	781.250
371.81	476.923
372.03	3700.000
372.24	254.286
372.46	307.407
372.68	80.282
372.89	146.667
373.11	105.941
373.32	-111.538
373.54	362.500
373.76	139.394
373.97	287.500
374.19	186.076
374.40	429.412
374.62	403.030
374.84	-453.846
375.05	131.429
375.27	647.059
375.48	419.048
375.70	412.903
375.92	112.069
376.13	-1266.667
376.35	110.714
376.56	220.408
376.78	147.000
376.99	336.364
377.21	174.419
377.43	209.677
377.64	125.000
377.86	282.500
378.07	166.667
378.29	114.286
378.51	136.471
378.72	253.846
378.94	94.872
379.15	93.684
379.37	84.821
379.58	127.692
379.80	90.164
380.01	223.077
380.23	240.000
380.45	157.778
380.66	86.667
380.88	88.235
381.09	144.681
381.31	112.821
381.52	111.538
381.74	126.316
381.95	88.095
382.17	148.214
382.39	154.167
382.60	170.000
382.82	50.909
383.03	143.038
383.25	171.053
383.46	190.909
383.68	109.091
383.89	172.973
384.11	122.727
384.32	53.226
384.54	-66.667
384.76	108.602
384.97	80.645
385.19	-17.143
385.40	141.096
385.62	124.286
385.83	116.471
386.05	162.069
386.26	46.281
386.48	62.637
386.69	40.000
386.91	101.064
387.12	83.333
387.34	105.405
387.55	20.833
387.77	58.140
387.98	58.865
388.20	86.916
388.41	70.238
388.63	43.182
388.84	48.315
389.06	100.000
389.27	82.836
389.49	86.275
389.70	67.939
389.92	65.035
390.13	72.368
390.35	53.435
390.56	86.719
390.78	74.510
390.99	47.423
391.21	16.176
391.42	75.940
391.64	83.217
391.85	34.906
392.07	25.641
392.28	34.177
392.50	69.271
392.71	49.606
392.93	63.636
393.14	69.767
393.36	64.754
393.57	50.000
393.79	87.195
394.00	63.478
394.22	85.345
394.43	41.579
394.65	49.444
394.86	29.651
395.08	60.656
395.29	11.538
395.50	41.237
395.72	38.037
395.93	59.355
396.15	17.284
396.36	9.150
396.58	18.493
396.79	47.853
397.01	38.095
397.22	47.938
397.44	40.580
397.65	53.205
397.87	45.355
398.08	47.712
398.29	41.057
398.51	35.821
398.72	16.837
398.94	31.765
399.15	35.233
399.37	73.988
399.58	41.921
399.80	-24.074
400.01	32.632
400.22	32.381
400.44	21.834
400.65	2.083
400.87	41.991
401.08	32.828
401.30	28.241
401.51	25.616
401.72	32.068
401.94	27.917
402.15	22.603
402.37	10.556
402.58	33.929
402.80	7.540
403.01	9.479
403.22	21.374
403.44	29.930
403.65	29.841
403.87	1.181
404.08	34.576
404.30	11.297
404.51	41.159
404.72	35.202
404.94	29.885
405.15	26.772
405.37	35.110
405.58	25.478
405.79	17.508
406.01	24.306
406.22	30.599
406.44	20.761
406.65	24.384
406.86	17.293
407.08	13.548
407.29	28.763
407.51	16.760
407.72	25.728
407.93	19.399
408.15	15.608
408.36	15.938
408.58	39.048
408.79	13.134
409.00	17.368
409.22	29.844
409.43	19.380
409.64	31.667
409.86	17.703
410.07	24.176
410.29	20.399
410.50	18.778
410.71	13.712
410.93	21.374
411.14	26.907
411.35	27.253
411.57	27.789
411.78	31.388
412.00	24.109
412.21	29.681
412.42	28.417
412.64	27.344
412.85	21.947
413.06	17.199
413.28	27.032
413.49	28.785
413.70	28.468
413.92	37.190
414.13	19.231
414.34	25.620
414.56	25.696
414.77	26.274
414.98	25.854
415.20	31.158
415.41	27.955
415.63	30.781
415.84	38.009
416.05	32.410
416.27	30.663
416.48	36.289
416.69	34.121
416.91	33.718
417.12	29.457
417.33	45.536
417.55	42.781
417.76	40.580
417.97	39.143
418.19	44.323
418.40	39.028
418.61	47.120
418.83	44.883
419.04	50.864
419.25	46.056
419.46	50.675
419.68	46.118
419.89	48.299
420.10	55.359
420.32	51.485
420.53	54.649
420.74	57.488
420.96	57.503
421.17	52.149
421.38	56.020
421.60	53.133
421.81	56.257
422.02	58.817
422.23	53.762
422.45	51.672
422.66	54.119
422.87	55.692
423.09	57.895
423.30	61.743
423.51	57.316
423.73	55.294
423.94	60.897
424.15	58.982
424.36	53.259
424.58	54.449
424.79	51.724
425.00	53.366
425.22	48.731
425.43	51.323
425.64	50.398
425.85	47.932
426.07	48.765
426.28	54.778
426.49	49.713
426.71	53.464
426.92	48.566
427.13	46.972
427.34	48.306
427.56	47.804
427.77	49.204
427.98	42.176
428.19	43.035
428.41	41.941
428.62	43.606
428.83	47.487
429.04	39.387
429.26	38.694
429.47	41.332
429.68	39.505
429.89	43.493
430.11	41.326
430.32	40.172
430.53	39.755
430.74	35.661
430.96	39.419
431.17	42.976
431.38	35.978
431.59	36.846
431.81	38.450
432.02	33.409
432.23	33.758
432.44	27.618
432.66	31.856
432.87	37.491
433.08	33.479
433.29	35.168
433.51	30.454
433.72	29.880
433.93	28.491
434.14	28.326
434.35	28.947
434.57	24.031
434.78	27.138
434.99	24.642
435.20	24.698
435.42	22.903
435.63	24.167
435.84	19.455
436.05	20.719
436.26	16.829
436.48	20.818
436.69	17.252
436.90	20.735
437.11	15.408
437.32	17.048
437.54	18.547
437.75	11.892
437.96	15.085
438.17	11.627
438.38	11.439
438.60	9.559
438.81	10.697
439.02	10.941
439.23	9.573
439.44	9.325
439.66	10.514
439.87	6.835
440.08	3.735
440.29	10.694
440.50	10.017
440.72	6.341
440.93	7.796
441.14	7.139
441.35	7.508
441.56	4.223
441.77	4.810
441.99	4.802
442.20	2.234
442.41	1.855
442.62	2.434
442.83	2.012
443.04	4.992
443.26	3.112
443.47	7.561
443.68	4.366
443.89	3.635
444.10	4.675
444.31	6.588
444.53	6.667
444.74	4.676
444.95	1.774
445.16	4.264
445.37	4.089
445.58	3.634
445.80	8.229
446.01	4.612
446.22	1.917
446.43	4.281
446.64	3.711
446.85	4.738
447.06	3.165
447.28	2.635
447.49	2.555
447.70	5.606
447.91	6.272
448.12	3.469
448.33	2.437
448.54	1.412
448.76	4.085
448.97	-0.333
449.18	4.077
449.39	2.682
449.60	3.931
449.81	1.425
450.02	3.806
450.23	4.362
450.45	3.396
450.66	2.566
450.87	1.862
451.08	5.025
451.29	3.916
451.50	3.455
451.71	0.093
451.92	4.114
452.13	5.672
452.35	5.087
452.56	1.962
452.77	3.700
452.98	4.950
453.19	1.972
453.40	3.796
453.61	4.884
453.82	2.810
454.03	4.494
454.25	5.093
454.46	2.084
454.67	3.782
454.88	3.450
455.09	3.958
455.30	2.160
455.51	3.931
455.72	2.838
455.93	3.919
456.14	5.378
456.35	2.128
456.56	3.071
456.78	3.176
456.99	3.982
457.20	2.549
457.41	5.083
457.62	0.400
457.83	3.686
458.04	1.411
458.25	2.923
458.46	2.802
458.67	4.326
458.88	3.980
459.09	2.754
459.30	2.474
459.51	3.376
459.73	2.337
459.94	4.671
460.15	3.403
460.36	2.720
460.57	3.085
460.78	2.301
460.99	1.561
461.20	2.011
461.41	3.891
461.62	0.459
461.83	4.023
462.04	2.986
462.25	1.287
462.46	3.230
462.67	2.868
462.88	5.202
463.09	3.929
463.30	2.856
463.51	4.472
463.72	4.042
463.93	2.656
464.15	2.188
464.36	1.682
464.57	4.607
464.78	2.854
464.99	2.423
465.20	3.387
465.41	2.784
465.62	3.490
465.83	4.124
466.04	1.678
466.25	4.202
466.46	3.412
466.67	2.649
466.88	1.660
467.09	2.757
467.30	2.300
467.51	2.193
467.72	3.400
467.93	0.797
468.14	3.811
468.35	3.265
468.56	3.518
468.77	3.950
468.98	3.640
469.19	3.760
469.40	1.253
469.61	2.144
469.82	2.460
470.03	3.983
470.24	2.807
470.45	5.129
470.66	3.537
470.87	3.155
471.08	2.776
471.29	3.034
471.50	3.947
471.71	1.336
471.92	3.376
472.13	3.926
472.34	2.843
472.55	3.212
472.76	2.675
472.97	3.991
473.18	3.044
473.39	4.202
473.60	3.803
473.81	2.869
474.01	4.970
474.22	2.317
474.43	4.707
474.64	4.780
474.85	5.121
475.06	4.699
475.27	3.627
475.48	6.002
475.69	5.252
475.90	5.859
476.11	5.848
476.32	6.927
476.53	6.439
476.74	7.159
476.95	7.730
477.16	8.799
477.37	7.021
477.58	9.781
477.79	9.574
478.00	9.035
478.21	10.123
478.41	10.946
478.62	11.078
478.83	12.619
479.04	12.878
479.25	13.247
479.46	13.740
479.67	14.038
479.88	14.040
480.09	15.716
480.30	16.132
480.51	16.529
480.72	18.315
480.93	16.810
481.14	18.706
481.34	19.737
481.55	18.677
481.76	19.356
481.97	21.448
482.18	22.001
482.39	21.639
482.60	21.582
482.81	22.613
483.02	22.382
483.23	24.216
483.44	23.642
483.65	25.047
483.85	23.880
484.06	24.830
484.27	25.956
484.48	25.330
484.69	26.005
484.90	26.317
485.11	26.721
485.32	27.259
485.53	27.856
485.73	28.309
485.94	28.384
486.15	27.912
486.36	29.791
486.57	29.120
486.78	29.887
486.99	30.406
487.20	30.701
487.41	32.107
487.61	32.939
487.82	33.930
488.03	35.021
488.24	35.898
488.45	35.018
488.66	37.185
488.87	38.735
489.08	38.863
489.28	41.410
489.49	40.927
489.70	43.040
489.91	42.501
490.12	43.336
490.33	45.163
490.54	45.997
490.74	46.406
490.95	46.530
491.16	47.313
491.37	47.747
491.58	48.628
491.79	49.326
492.00	50.451
492.20	50.334
492.41	51.352
492.62	50.692
492.83	51.524
493.04	51.350
493.25	52.014
493.45	52.106
493.66	51.750
493.87	52.011
494.08	50.680
494.29	51.717
494.50	50.560
494.70	51.868
494.91	50.272
495.12	50.138
495.33	50.460
495.54	49.253
495.75	48.881
495.95	48.110
496.16	47.834
496.37	46.544
496.58	45.996
496.79	45.527
496.99	44.504
497.20	44.408
497.41	44.267
497.62	41.750
497.83	41.647
498.04	41.414
498.24	39.658
498.45	39.342
498.66	39.762
498.87	40.072
499.08	38.967
499.28	36.839
499.49	36.455
499.70	35.359
499.91	35.186
500.12	35.226
500.32	34.961
500.53	34.663
500.74	33.806
500.95	34.745
501.15	33.099
501.36	33.396
501.57	32.867
501.78	32.785
501.99	31.729
502.19	31.891
502.40	31.644
502.61	30.746
502.82	30.178
503.02	29.619
503.23	28.360
503.44	28.704
503.65	27.356
503.86	26.814
504.06	25.273
504.27	25.742
504.48	24.545
504.69	23.906
504.89	22.742
505.10	21.197
505.31	20.451
505.52	20.433
505.72	20.335
505.93	18.347
506.14	17.512
506.35	17.462
506.55	16.163
506.76	15.243
506.97	14.994
507.18	14.084
507.38	14.484
507.59	12.701
507.80	11.908
508.01	11.692
508.21	10.902
508.42	10.603
508.63	9.820
508.84	9.472
509.04	8.074
509.25	7.842
509.46	6.963
509.67	7.297
509.87	6.600
510.08	6.146
510.29	5.083
510.49	4.881
510.70	4.783
510.91	3.835
511.12	3.857
511.32	2.945
511.53	3.001
511.74	2.866
511.94	2.462
512.15	2.638
512.36	2.022
512.57	1.917
512.77	1.545
512.98	1.307
513.19	1.669
513.39	1.945
513.60	1.675
513.81	1.593
514.01	1.643
514.22	1.917
514.43	1.500
514.64	1.520
514.84	1.590
515.05	1.427
515.26	1.110
515.46	1.218
515.67	1.899
515.88	1.605
516.08	1.271
516.29	1.480
516.50	1.212
516.70	1.334
516.91	1.184
517.12	1.483
517.32	1.220
517.53	1.766
517.74	1.711
517.95	1.500
518.15	1.240
518.36	1.275
518.57	1.263
518.77	1.236
518.98	1.781
519.19	1.098
519.39	1.617
519.60	1.320
519.80	1.655
520.01	1.327
520.22	1.258
520.42	1.713
520.63	1.231
520.84	1.523
521.04	1.360
521.25	1.361
521.46	1.377
521.66	1.047
521.87	1.350
522.08	1.536
522.28	2.073
522.49	1.290
522.70	1.535
522.90	1.545
523.11	1.358
523.31	1.745
523.52	1.606
523.73	1.399
523.93	1.360
524.14	0.989
524.35	1.198
524.55	1.396
524.76	1.112
524.97	1.416
525.17	1.250
525.38	1.226
525.58	1.436
525.79	1.133
526.00	1.405
526.20	1.481
526.41	1.437
526.61	1.495
526.82	1.203
527.03	1.765
527.23	1.678
527.44	1.043
527.64	0.892
527.85	1.208
528.06	1.469
528.26	1.625
528.47	1.154
528.68	1.649
528.88	1.545
529.09	1.517
529.29	1.872
529.50	1.389
529.70	2.007
529.91	1.656
530.12	2.145
530.32	2.100
530.53	2.328
530.73	2.171
530.94	2.077
531.15	2.334
531.35	3.060
531.56	2.431
531.76	3.021
531.97	2.590
532.17	3.209
532.38	3.069
532.59	3.073
532.79	3.588
533.00	3.990
533.20	3.558
533.41	3.819
533.61	4.051
533.82	5.057
534.03	5.208
534.23	5.555
534.44	5.762
534.64	6.554
534.85	7.558
535.05	7.256
535.26	7.737
535.46	8.739
535.67	8.921
535.88	9.951
536.08	9.812
536.29	10.746
536.49	11.659
536.70	11.681
536.90	12.397
537.11	13.068
537.31	13.368
537.52	13.992
537.72	14.710
537.93	15.230
538.13	15.596
538.34	16.166
538.55	16.445
538.75	17.313
538.96	18.335
539.16	18.819
539.37	19.111
539.57	20.315
539.78	21.034
539.98	21.425
540.19	21.780
540.39	22.932
540.60	22.989
540.80	23.822
541.01	24.871
541.21	25.262
541.42	25.804
541.62	27.046
541.83	27.334
542.03	27.785
542.24	28.441
542.44	29.171
542.65	29.992
542.85	31.059
543.06	31.030
543.26	32.445
543.47	33.307
543.67	34.031
543.88	35.528
544.08	36.008
544.29	37.581
544.49	38.586
544.70	39.340
544.90	40.334
545.11	41.442
545.31	43.245
545.52	44.307
545.72	46.036
545.93	47.382
546.13	47.600
546.34	49.590
546.54	51.041
546.75	51.906
546.95	53.349
547.15	53.311
547.36	54.566
547.56	56.712
547.77	58.090
547.97	58.967
548.18	60.271
548.38	59.860
548.59	61.329
548.79	61.626
549.00	64.398
549.20	64.317
549.41	64.699
549.61	64.747
549.81	66.583
550.02	67.070
550.22	67.654
550.43	68.851
550.63	67.477
550.84	68.874
551.04	69.154
551.25	70.350
551.45	69.907
551.65	70.973
551.86	70.804
552.06	72.034
552.27	72.389
552.47	70.794
552.68	72.026
552.88	72.239
553.08	71.603
553.29	70.702
553.49	70.247
553.70	70.819
553.90	71.379
554.11	71.731
554.31	70.984
554.51	70.189
554.72	70.688
554.92	70.739
555.13	70.278
555.33	70.290
555.53	69.652
555.74	69.516
555.94	70.808
556.15	70.523
556.35	70.631
556.56	69.608
556.76	69.342
556.96	69.521
557.17	68.456
557.37	69.610
557.58	69.671
557.78	68.926
557.98	68.808
558.19	69.141
558.39	69.710
558.59	68.069
558.80	68.121
559.00	67.975
559.21	68.579
559.41	68.062
559.61	67.840
559.82	67.859
560.02	67.503
560.23	66.232
560.43	66.189
560.63	66.361
560.84	66.363
561.04	65.164
561.24	65.560
561.45	65.282
561.65	65.506
561.85	64.662
562.06	65.743
562.26	64.949
562.47	64.442
562.67	64.088
562.87	63.679
563.08	63.906
563.28	63.769
563.48	62.911
563.69	63.763
563.89	62.969
564.09	63.960
564.30	62.632
564.50	62.863
564.70	63.062
564.91	63.004
565.11	63.616
565.31	64.072
565.52	63.892
565.72	63.579
565.92	63.258
566.13	62.711
566.33	63.104
566.53	64.322
566.74	63.533
566.94	63.486
567.14	64.055
567.35	64.801
567.55	63.422
567.75	64.927
567.96	64.396
568.16	64.048
568.36	63.795
568.57	63.231
568.77	63.927
568.97	63.585
569.18	63.521
569.38	63.036
569.58	64.532
569.79	64.281
569.99	63.951
570.19	65.263
570.39	64.060
570.60	64.710
570.80	65.505
571.00	65.666
571.21	66.006
571.41	65.391
571.61	64.124
571.82	64.835
572.02	65.511
572.22	65.264
572.42	66.271
572.63	65.151
572.83	65.831
573.03	64.337
573.24	64.763
573.44	64.418
573.64	63.726
573.84	64.184
574.05	64.160
574.25	64.366
574.45	64.728
574.66	64.277
574.86	65.506
575.06	64.749
575.26	64.961
575.47	64.016
575.67	64.869
575.87	64.301
576.07	63.690
576.28	63.771
576.48	63.363
576.68	62.615
576.88	61.250
577.09	61.373
577.29	60.427
577.49	58.470
577.69	59.388
577.90	57.394
578.10	56.814
578.30	56.928
578.50	55.902
578.71	54.639
578.91	53.961
579.11	53.896
579.31	52.724
579.52	51.943
579.72	50.629
579.92	49.956
580.12	49.596
580.33	48.674
580.53	47.939
580.73	47.529
580.93	47.364
581.13	45.228
581.34	45.225
581.54	43.768
581.74	43.332
581.94	42.832
582.15	42.659
582.35	41.387
582.55	40.974
582.75	40.324
582.95	39.209
583.16	38.419
583.36	38.466
583.56	38.501
583.76	37.106
583.96	36.858
584.17	35.936
584.37	35.737
584.57	35.624
584.77	35.855
584.97	35.303
585.18	34.945
585.38	34.611
585.58	33.673
585.78	33.431
585.98	33.681
586.19	33.273
586.39	31.403
586.59	31.632
586.79	31.674
586.99	31.341
587.20	31.334
587.40	31.133
587.60	30.783
587.80	30.202
588.00	29.285
588.20	29.918
588.41	29.959
588.61	29.550
588.81	28.478
589.01	29.079
589.21	28.371
589.41	28.925
589.62	28.973
589.82	28.734
590.02	28.166
590.22	28.630
590.42	28.463
590.62	28.343
590.83	28.275
591.03	28.121
591.23	28.433
591.43	29.004
591.63	28.474
591.83	28.404
592.03	28.884
592.24	27.773
592.44	27.897
592.64	27.839
592.84	27.504
593.04	27.737
593.24	26.798
593.44	26.514
593.65	25.741
593.85	25.340
594.05	24.872
594.25	24.894
594.45	23.960
594.65	23.883
594.85	23.423
595.06	22.588
595.26	21.672
595.46	21.218
595.66	20.194
595.86	19.652
596.06	18.693
596.26	18.817
596.46	17.784
596.66	16.789
596.87	16.397
597.07	16.019
597.27	15.162
597.47	14.836
597.67	14.451
597.87	13.980
598.07	13.569
598.27	12.378
598.47	12.234
598.67	11.446
598.88	11.328
599.08	10.960
599.28	10.450
599.48	9.673
599.68	9.562
599.88	8.803
600.08	8.361
600.28	7.973
600.48	7.508
600.68	7.056
600.88	6.680
601.09	6.380
601.29	6.226
601.49	5.863
601.69	5.868
601.89	5.219
602.09	4.822
602.29	4.545
602.49	4.229
602.69	3.714
602.89	3.741
603.09	3.255
603.29	3.106
603.49	3.008
603.69	2.765
603.90	2.122
604.10	2.006
604.30	2.272
604.50	1.610
604.70	1.708
604.90	1.654
605.10	1.573
605.30	1.589
605.50	1.265
605.70	1.240
605.90	1.222
606.10	1.200
606.30	1.217
606.50	1.190
606.70	0.870
606.90	0.999
607.10	0.892
607.30	0.878
607.50	1.031
607.70	1.174
607.90	0.871
608.10	0.814
608.30	0.969
608.50	0.899
608.70	0.799
608.90	0.888
609.11	0.948
609.31	0.903
609.51	0.950
609.71	0.865
609.91	0.698
610.11	1.119
610.31	0.893
610.51	1.108
610.71	0.565
610.91	1.046
611.11	0.881
611.31	0.889
611.51	0.905
611.71	0.637
611.91	0.963
612.11	0.615
612.31	1.060
612.51	0.892
612.71	0.823
612.91	0.641
613.11	0.911
613.31	0.960
613.51	0.808
613.71	0.810
613.91	0.639
614.11	0.781
614.31	0.880
614.50	0.830
614.70	0.827
614.90	0.693
615.10	0.756
615.30	0.772
615.50	0.801
615.70	0.515
615.90	0.690
616.10	0.665
616.30	0.891
616.50	0.886
616.70	0.931
616.90	0.787
617.10	0.553
617.30	1.068
617.50	0.833
617.70	0.726
617.90	0.722
618.10	0.784
618.30	0.622
618.50	0.839
618.70	0.732
618.90	0.668
619.10	0.838
619.30	0.830
619.49	0.643
619.69	0.927
619.89	0.806
620.09	0.761
620.29	0.807
620.49	0.922
620.69	0.873
620.89	0.714
621.09	0.951
621.29	0.744
621.49	0.818
621.69	0.644
621.89	0.970
622.09	0.816
622.29	0.666
622.48	0.818
622.68	0.762
622.88	1.100
623.08	0.855
623.28	0.972
623.48	0.512
623.68	0.734
623.88	0.846
624.08	0.862
624.28	0.647
624.48	0.934
624.67	0.581
624.87	0.530
625.07	0.648
625.27	0.851
625.47	0.893
625.67	0.730
625.87	0.762
626.07	0.763
626.27	0.534
626.47	0.711
626.66	0.795
626.86	0.766
627.06	0.560
627.26	0.809
627.46	0.813
627.66	0.762
627.86	0.747
628.06	0.967
628.25	0.783
628.45	1.141
628.65	0.726
628.85	0.541
629.05	0.663
629.25	0.629
629.45	0.596
629.65	0.861
629.84	0.993
630.04	0.446
630.24	0.824
630.44	0.680
630.64	0.824
630.84	0.747
631.04	1.081
631.23	0.792
631.43	0.607
631.63	0.498
631.83	0.751
632.03	0.738
632.23	0.557
632.42	0.741
632.62	0.716
632.82	0.654
633.02	0.752
633.22	0.601
633.42	0.655
633.62	0.970
633.81	0.647
634.01	0.622
634.21	0.627
634.41	0.617
634.61	0.869
634.80	0.693
635.00	0.486
635.20	0.745
635.40	0.645
635.60	0.702
635.80	0.901
635.99	0.539
636.19	0.748
636.39	0.570
636.59	0.637
636.79	0.758
636.98	0.694
637.18	0.648
637.38	0.765
637.58	0.840
637.78	0.668
637.97	0.725
638.17	0.626
638.37	0.360
638.57	0.692
638.77	0.944
638.96	0.863
639.16	0.953
639.36	0.651
639.56	0.700
639.76	0.800
639.95	0.931
640.15	0.563
640.35	0.776
640.55	0.951
640.75	0.473
640.94	0.697
641.14	0.755
641.34	0.687
641.54	0.714
641.73	0.831
641.93	0.840
642.13	0.605
642.33	0.731
642.53	0.741
642.72	0.598
642.92	0.795
643.12	0.513
643.32	0.720
643.51	0.935
643.71	0.626
643.91	0.536
644.11	0.497
644.30	0.705
644.50	0.657
644.70	0.809
644.90	0.700
645.09	0.870
645.29	0.663
645.49	0.618
645.69	0.673
645.88	0.642
646.08	0.752
646.28	0.843
646.48	0.647
646.67	0.786
646.87	0.828
647.07	0.799
647.26	0.642
647.46	0.700
647.66	0.612
647.86	0.547
648.05	0.847
648.25	0.855
648.45	0.330
648.65	0.561
648.84	0.921
649.04	0.736
649.24	0.653
649.43	0.924
649.63	0.720
649.83	0.769
650.03	0.729
650.22	0.658
650.42	0.781
650.62	0.635
650.81	0.578
651.01	0.712
651.21	0.805
651.40	0.825
651.60	0.652
651.80	0.669
652.00	0.570
652.19	0.587
652.39	0.730
652.59	0.629
652.78	0.697
652.98	0.690
653.18	0.688
653.37	0.902
653.57	0.747
653.77	0.724
653.96	0.561
654.16	0.917
654.36	0.785
654.55	0.598
654.75	0.807
654.95	0.775
655.14	0.941
655.34	0.846
655.54	0.651
655.73	0.694
655.93	0.638
656.13	0.636
656.32	0.614
656.52	0.803
656.72	0.864
656.91	0.831
657.11	0.551
657.31	0.643
657.50	0.576
657.70	0.398
657.90	0.803
658.09	0.581
658.29	0.804
658.49	0.708
658.68	0.621
658.88	0.703
659.07	0.598
659.27	0.759
659.47	0.801
659.66	0.768
659.86	0.784
660.06	0.859
660.25	0.829
660.45	0.774
660.64	0.666
660.84	0.986
661.04	0.725
661.23	0.804
661.43	0.753
661.63	0.569
661.82	0.663
662.02	0.535
662.21	0.677
662.41	0.537
662.61	0.860
662.80	0.919
663.00	0.822
663.19	0.720
663.39	0.716
663.59	0.484
663.78	0.779
663.98	0.840
664.17	0.670
664.37	0.751
664.57	0.954
664.76	0.876
664.96	0.779
665.15	0.776
665.35	0.691
665.55	0.478
665.74	0.676
665.94	0.733
666.13	0.751
666.33	0.906
666.53	0.887
666.72	0.835
666.92	1.027
667.11	0.853
667.31	0.729
667.50	0.751
667.70	0.710
667.90	0.740
668.09	0.621
668.29	0.563
668.48	0.717
668.68	0.715
668.87	0.812
669.07	0.548
669.26	1.096
669.46	0.780
669.66	0.828
669.85	0.667
670.05	0.603
670.24	0.845
670.44	0.846
670.63	0.716
670.83	0.924
671.02	0.888
671.22	0.632
671.42	0.618
671.61	0.754
671.81	0.791
672.00	0.986
672.20	0.853
672.39	0.629
672.59	0.909
672.78	0.972
672.98	0.859
673.17	0.648
673.37	0.588
673.56	0.849
673.76	0.701
673.95	0.829
674.15	0.549
674.34	0.693
674.54	0.699
674.73	0.672
674.93	0.730
675.13	0.629
675.32	0.944
675.52	0.701
675.71	0.635
675.91	0.745
676.10	0.738
676.30	0.650
676.49	0.739
676.69	0.825
676.88	0.726
677.08	0.701
677.27	0.679
677.47	0.946
677.66	0.751
677.86	0.629
678.05	0.665
678.24	0.727
678.44	0.664
678.63	0.815
678.83	0.789
679.02	1.062
679.22	0.610
679.41	0.743
679.61	0.613
679.80	0.829
680.00	0.712
680.19	0.842
680.39	0.860
680.58	0.842
680.78	0.857
680.97	0.816
681.17	0.740
681.36	0.804
681.56	0.787
681.75	0.684
681.94	0.932
682.14	0.765
682.33	0.532
682.53	0.849
682.72	0.845
682.92	0.855
683.11	0.757
683.31	0.858
683.50	0.804
683.69	0.532
683.89	0.816
684.08	0.843
684.28	0.992
684.47	0.833
684.67	0.852
684.86	0.865
685.06	0.996
685.25	0.549
685.44	0.721
685.64	0.940
685.83	0.949
686.03	0.835
686.22	0.743
686.42	0.894
686.61	0.641
686.80	0.708
687.00	1.030
687.19	0.885
687.39	0.807
687.58	0.685
687.77	0.822
687.97	0.820
688.16	0.734
688.36	0.639
688.55	0.746
688.74	1.071
688.94	0.650
689.13	0.710
689.33	0.777
689.52	0.780
689.71	0.738
689.91	0.753
690.10	0.806
690.30	0.830
690.49	0.776
690.68	0.929
690.88	1.028
691.07	0.768
691.27	1.055
691.46	0.821
691.65	0.719
691.85	0.918
692.04	0.812
692.23	0.847
692.43	0.757
692.62	0.766
692.82	0.993
693.01	0.907
693.20	0.940
693.40	0.756
693.59	0.952
693.78	0.762
693.98	0.750
694.17	0.874
694.36	0.760
694.56	0.924
694.75	1.029
694.94	1.000
695.14	1.272
695.33	0.866
695.53	1.020
695.72	0.777
695.91	1.063
696.11	0.691
696.30	0.793
696.49	0.877
696.69	0.857
696.88	0.848
697.07	0.643
697.27	0.995
697.46	0.908
697.65	0.985
697.85	0.915
698.04	0.910
698.23	0.963
698.43	1.216
698.62	0.917
698.81	0.762
699.01	1.031
699.20	0.775
699.39	0.770
699.58	1.076
699.78	0.887
699.97	0.888
700.16	0.920
700.36	1.012
700.55	0.813
700.74	1.031
700.94	1.096
701.13	1.031
701.32	1.057
701.52	0.762
701.71	1.101
701.90	0.979
702.09	0.784
702.29	0.955
702.48	0.944
702.67	0.968
702.87	0.978
703.06	0.766
703.25	1.208
703.44	0.866
703.64	1.127
703.83	0.985
704.02	0.914
704.22	1.053
704.41	1.015
704.60	1.021
704.79	1.001
704.99	0.892
705.18	0.926
705.37	0.915
705.56	0.887
705.76	1.075
705.95	1.123
706.14	0.832
706.33	0.727
706.53	1.057
706.72	1.009
706.91	0.919
707.11	0.850
707.30	0.908
707.49	1.395
707.68	1.167
707.88	0.992
708.07	0.916
708.26	0.773
708.45	0.939
708.64	1.111
708.84	0.996
709.03	1.177
709.22	0.766
709.41	0.941
709.61	0.902
709.80	1.130
709.99	1.130
710.18	0.799
710.38	1.166
710.57	0.761
710.76	0.742
710.95	1.094
711.14	1.173
711.34	1.093
711.53	1.046
711.72	0.996
711.91	1.117
712.11	1.008
712.30	1.041
712.49	0.989
712.68	0.977
712.87	1.288
713.07	1.144
713.26	1.022
713.45	1.218
713.64	1.185
713.83	0.845
714.03	1.167
714.22	1.122
714.41	1.265
714.60	0.817
714.79	1.098
714.99	1.130
715.18	1.012
715.37	0.895
715.56	1.325
715.75	1.262
715.94	1.138
716.14	0.915
716.33	1.063
716.52	0.935
716.71	1.344
716.90	1.219
717.10	1.074
717.29	1.039
717.48	1.085
717.67	0.952
717.86	0.928
718.05	1.081
718.24	1.264
718.44	1.188
718.63	1.063
718.82	1.328
719.01	0.958
719.20	1.016
719.39	0.735
719.59	0.981
719.78	1.007
719.97	1.038
720.16	1.159
720.35	0.969
720.54	1.101
720.73	1.208
720.93	1.213
721.12	1.097
721.31	0.956
721.50	1.299
721.69	1.177
721.88	1.144
722.07	1.131
722.27	1.077
722.46	1.117
722.65	1.007
722.84	1.229
723.03	1.043
723.22	0.948
723.41	1.035
723.60	1.187
723.79	1.172
723.99	1.096
724.18	1.131
724.37	1.417
724.56	1.029
724.75	1.052
724.94	1.207
725.13	1.317
725.32	1.377
725.51	1.091
725.71	1.151
725.90	1.043
726.09	1.177
726.28	1.234
726.47	1.292
726.66	1.191
726.85	1.079
727.04	0.881
727.23	1.085
727.42	0.871
727.61	0.975
727.81	1.078
728.00	1.157
728.19	1.099
728.38	0.975
728.57	0.921
728.76	1.436
728.95	1.193
729.14	1.086
729.33	1.223
729.52	1.250
729.71	1.317
729.90	0.874
730.09	1.371
730.28	1.151
730.48	1.030
730.67	1.131
730.86	1.262
731.05	1.377
731.24	1.451
731.43	1.198
731.62	1.147
731.81	1.240
732.00	1.188
732.19	1.196
732.38	1.125
732.57	1.193
732.76	1.133
732.95	1.286
733.14	1.268
733.33	1.467
733.52	1.502
733.71	1.296
733.90	1.156
734.09	1.032
734.28	1.226
734.47	1.143
734.66	0.955
734.85	1.187
735.04	1.125
735.23	1.064
735.42	1.122
735.61	1.144
735.81	1.257
736.00	1.178
736.19	1.356
736.38	1.220
736.57	1.072
736.76	1.237
736.95	1.018
737.14	1.395
737.33	1.284
737.52	1.376
737.71	1.297
737.90	1.360
738.09	1.336
738.28	1.267
738.47	0.969
738.66	1.170
738.85	1.307
739.04	1.411
739.22	1.195
739.41	1.248
739.60	1.179
739.79	1.206
739.98	1.343
740.17	1.427
740.36	1.214
740.55	1.337
740.74	1.290
740.93	1.317
741.12	1.370
741.31	1.296
741.50	1.337
741.69	1.323
741.88	1.099
742.07	0.996
742.26	1.277
742.45	1.569
742.64	1.504
742.83	1.238
743.02	1.250
743.21	1.188
743.40	1.237
743.59	1.217
743.78	1.243
743.97	1.590
744.16	1.210
744.34	1.003
744.53	1.321
744.72	1.649
744.91	0.985
745.10	1.107
745.29	1.352
745.48	1.223
745.67	1.438
745.86	1.245
746.05	1.566
746.24	1.468
746.43	1.402
746.62	1.365
746.81	1.207
747.00	1.540
747.18	1.429
747.37	1.545
747.56	1.149
747.75	1.220
747.94	1.482
748.13	1.361
748.32	1.337
748.51	1.361
748.70	1.469
748.89	1.287
749.08	1.216
749.26	1.255
749.45	1.328
749.64	1.245
749.83	1.472
750.02	1.613
750.21	1.432
750.40	1.425
750.59	1.258
750.78	1.492
750.96	1.158
751.15	1.275
751.34	1.431
751.53	1.575
751.72	1.398
751.91	1.217
752.10	0.966
752.29	1.595
752.47	1.503
752.66	1.273
752.85	1.453
753.04	1.293
753.23	1.222
753.42	1.030
753.61	1.325
753.80	1.629
753.98	1.444
754.17	1.416
754.36	1.549
754.55	1.210
754.74	1.118
754.93	1.262
755.12	1.180
755.30	1.568
755.49	1.636
755.68	1.382
755.87	1.469
756.06	1.603
756.25	1.111
756.43	1.488
756.62	1.254
756.81	1.872
757.00	1.330
757.19	1.225
757.38	1.236
757.56	1.342
757.75	1.647
757.94	1.189
758.13	1.709
758.32	1.185
758.51	1.258
758.69	1.474
758.88	1.594
759.07	1.868
759.26	1.292
759.45	1.286
759.63	1.669
759.82	1.635
760.01	1.225
760.20	1.688
760.39	1.448
760.57	1.345
760.76	1.576
760.95	1.283
761.14	1.431
761.33	1.705
761.51	1.565
761.70	1.518
761.89	1.600
762.08	1.444
762.27	1.377
762.45	1.240
762.64	1.644
762.83	1.626
763.02	1.146
763.21	1.224
763.39	1.526
763.58	1.460
763.77	1.503
763.96	0.974
764.14	1.593
764.33	1.217
764.52	1.539
764.71	1.493
764.89	1.562
765.08	1.688
765.27	1.632
765.46	1.524
765.65	1.637
765.83	1.763
766.02	1.385
766.21	1.595
766.40	1.265
766.58	1.397
766.77	1.345
766.96	1.402
767.15	1.454
767.33	1.314
767.52	1.781
767.71	1.436
767.90	1.179
768.08	1.530
768.27	1.453
768.46	1.235
768.64	1.852
768.83	1.398
769.02	1.408
769.21	1.615
769.39	1.603
769.58	1.597
769.77	1.816
769.96	1.063
770.14	1.650
770.33	1.627
770.52	1.785
770.70	1.477
770.89	1.497
771.08	1.627
771.27	1.623
771.45	1.477
771.64	1.597
771.83	1.751
772.01	1.422
772.20	1.441
772.39	1.524
772.57	1.593
772.76	1.708
772.95	1.695
773.14	1.712
773.32	1.432
773.51	1.914
773.70	1.538
773.88	1.811
774.07	1.750
774.26	2.086
774.44	1.622
774.63	1.442
774.82	1.880
775.00	1.803
775.19	1.820
775.38	2.051
775.56	1.657
775.75	1.707
775.94	1.760
776.12	1.316
776.31	2.061
776.50	1.997
776.68	1.985
776.87	1.797
777.06	1.981
777.24	2.154
777.43	2.042
777.62	1.833
777.80	1.952
777.99	1.913
778.18	2.106
778.36	1.873
778.55	2.022
778.74	2.012
778.92	1.786
779.11	1.763
779.29	1.860
779.48	1.787
779.67	1.684
779.85	1.895
780.04	2.038
780.23	1.746
780.41	2.067
780.60	1.884
780.79	2.111
780.97	1.709
781.16	1.890
781.34	1.975
781.53	1.732
781.72	2.028
781.90	1.951
782.09	1.807
782.28	1.757
782.46	2.222
782.65	2.014
782.83	1.874
783.02	1.669
783.21	1.512
783.39	2.008
783.58	1.793
783.76	1.671
783.95	1.967
784.14	1.496
784.32	1.516
784.51	2.102
784.69	1.711
784.88	2.340
785.06	1.601
785.25	1.928
785.44	2.251
785.62	1.795
785.81	1.808
785.99	2.079
786.18	1.621
786.37	1.863
786.55	1.588
786.74	2.238
786.92	2.205
787.11	1.430
787.29	1.826
787.48	2.138
787.67	1.777
787.85	1.473
788.04	1.715
788.22	1.961
788.41	1.927
788.59	1.965
788.78	1.830
788.96	1.907
789.15	1.825
789.34	2.117
789.52	1.698
789.71	1.623
789.89	2.288
790.08	2.055
790.26	1.717
790.45	1.772
790.63	1.976
790.82	2.061
791.00	2.229
791.19	2.382
791.38	1.705
791.56	2.253
791.75	1.828
791.93	1.914
792.12	1.495
792.30	2.147
792.49	1.628
792.67	2.139
792.86	1.838
793.04	2.114
793.23	1.793
793.41	2.044
793.60	1.864
793.78	1.517
793.97	2.131
794.15	1.889
794.34	2.006
794.52	1.877
794.71	2.195
794.89	2.283
795.08	1.906
795.26	1.855
795.45	2.078
795.63	2.018
795.82	1.740
796.00	1.827
796.19	1.740
796.37	2.213
796.56	1.742
796.74	2.189
796.93	2.029
797.11	2.452
797.30	1.975
797.48	1.997
797.67	2.203
797.85	2.037
798.04	1.926
798.22	2.109
798.41	2.229
798.59	2.093
798.77	1.846
798.96	1.667
799.14	1.967
799.33	1.955
799.51	2.007
799.70	2.072
799.88	1.660
800.07	2.119
800.25	1.512
800.44	1.863
800.62	2.167
800.80	1.864
800.99	1.903
801.17	1.515
801.36	1.921
801.54	1.627
801.73	1.751
801.91	2.008
802.10	2.021
802.28	1.895
802.46	1.893
802.65	2.060
802.83	2.038
803.02	2.157
803.20	1.725
803.39	1.928
803.57	2.142
803.75	2.109
803.94	2.033
804.12	2.156
804.31	1.891
804.49	2.044
804.67	2.029
804.86	1.620
805.04	2.309
805.23	1.837
805.41	2.092
805.59	1.987
805.78	1.882
805.96	1.785
806.15	2.713
806.33	1.690
806.51	1.807
806.70	2.000
806.88	2.109
807.07	1.840
807.25	2.145
807.43	1.986
807.62	1.820
807.80	2.145
807.99	2.078
808.17	2.000
808.35	2.071
808.54	2.117
808.72	1.759
808.90	1.719
809.09	1.727
809.27	1.988
809.46	2.248
809.64	1.887
809.82	1.924
810.01	1.639
810.19	2.098
810.37	2.149
810.56	2.320
810.74	2.361
810.92	2.107
811.11	2.455
811.29	2.292
811.48	2.026
811.66	1.580
811.84	2.157
812.03	2.097
812.21	1.865
812.39	2.092
812.58	1.682
812.76	2.304
812.94	1.797
813.13	1.823
813.31	2.309
813.49	2.155
813.68	1.908
813.86	2.058
814.04	2.275
814.23	2.254
814.41	2.198
814.59	2.052
814.78	2.183
814.96	2.324
815.14	2.089
815.33	2.025
815.51	2.509
815.69	2.120
815.87	1.669
816.06	2.121
816.24	1.821
816.42	2.123
816.61	1.908
816.79	2.753
816.97	2.655
817.16	2.099
817.34	2.227
817.52	2.082
817.70	2.451
817.89	2.074
818.07	1.972
818.25	2.216
818.44	2.626
818.62	2.585
818.80	2.325
818.98	2.512
819.17	2.472
819.35	2.275
819.53	2.054
819.72	2.187
819.90	2.399
820.08	2.274
820.26	1.992
820.45	2.509
820.63	3.051
820.81	2.526
820.99	2.425
821.18	2.456
821.36	2.545
821.54	2.628
821.73	2.870
821.91	2.306
822.09	2.209
822.27	2.852
822.46	2.296
822.64	2.645
822.82	3.126
823.00	2.676
823.19	2.754
823.37	2.953
823.55	2.615
823.73	3.087
823.91	2.840
824.10	2.566
824.28	3.304
824.46	2.737
824.64	3.014
824.83	3.292
825.01	3.016
825.19	3.214
825.37	3.702
825.56	3.995
825.74	4.255
825.92	3.852
826.10	3.864
826.28	4.530
826.47	5.209
826.65	4.986
826.83	4.836
827.01	4.988
827.19	5.390
827.38	6.118
827.56	5.804
827.74	5.930
827.92	5.842
828.10	6.241
828.29	6.078
828.47	6.086
828.65	5.932
828.83	6.276
829.01	6.581
829.20	6.096
829.38	7.443
829.56	6.853
829.74	6.662
829.92	6.973
830.10	7.479
830.29	7.576
830.47	8.164
830.65	7.410
830.83	7.729
831.01	8.059
831.20	7.283
831.38	7.563
831.56	8.282
831.74	8.065
831.92	8.292
832.10	8.415
832.29	8.324
832.47	8.172
832.65	8.537
832.83	8.514
833.01	8.860
833.19	8.425
833.37	8.958
833.56	9.235
833.74	9.221
833.92	9.525
834.10	9.239
834.28	8.965
834.46	10.021
834.64	9.572
834.83	10.058
835.01	9.818
835.19	10.360
835.37	10.321
835.55	9.367
835.73	9.802
835.91	10.809
836.09	10.374
836.28	10.334
836.46	9.722
836.64	11.042
836.82	10.565
837.00	10.844
837.18	10.669
837.36	11.297
837.54	10.097
837.72	11.020
837.91	11.085
838.09	10.525
838.27	11.202
838.45	11.517
838.63	11.112
838.81	11.846
838.99	10.024
839.17	11.328
839.35	10.682
839.53	11.146
839.72	11.151
839.90	10.564
840.08	11.138
840.26	11.834
840.44	11.943
840.62	11.197
840.80	11.734
840.98	11.414
841.16	11.497
841.34	11.501
841.52	11.203
841.70	11.498
841.89	11.304
842.07	12.204
842.25	11.708
842.43	11.283
842.61	11.915
842.79	11.771
842.97	11.360
843.15	11.196
843.33	11.963
843.51	11.538
843.69	11.176
843.87	11.606
844.05	11.510
844.23	11.667
844.41	12.049
844.59	11.526
844.77	11.183
844.95	11.627
845.13	11.174
845.31	12.275
845.50	11.576
845.68	11.626
845.86	11.522
846.04	12.150
846.22	12.027
846.40	11.535
846.58	11.707
846.76	12.162
846.94	11.487
847.12	11.681
847.30	11.973
847.48	12.501
847.66	13.014
847.84	13.298
848.02	12.323
848.20	13.694
848.38	13.132
848.56	13.109
848.74	12.599
848.92	13.521
849.10	14.279
849.28	14.133
849.46	13.830
849.64	13.388
849.82	13.974
850.00	15.050
850.18	14.617
850.36	13.851
850.54	14.785
850.72	14.757
850.90	15.068
851.08	15.218
851.26	15.400
851.44	15.796
851.62	15.589
851.80	15.528
851.98	15.968
852.16	16.369
852.34	16.734
852.52	17.057
852.70	16.142
852.87	16.344
853.05	16.720
853.23	17.070
853.41	16.471
853.59	17.317
853.77	18.303
853.95	18.839
854.13	18.401
854.31	17.932
854.49	19.446
854.67	19.510
854.85	19.293
855.03	21.102
855.21	20.067
855.39	21.120
855.57	20.559
855.75	21.160
855.93	21.641
856.11	21.403
856.28	22.202
856.46	22.029
856.64	22.299
856.82	22.686
857.00	23.390
857.18	22.827
857.36	23.297
857.54	23.740
857.72	24.081
857.90	24.438
858.08	25.081
858.26	24.196
858.44	25.746
858.61	25.509
858.79	26.098
858.97	27.255
859.15	26.636
859.33	27.383
859.51	27.386
859.69	28.398
859.87	28.134
860.05	28.716
860.23	28.275
860.40	28.542
860.58	28.018
860.76	29.208
860.94	29.764
861.12	29.212
861.30	29.312
861.48	28.659
861.66	29.945
861.84	29.542
862.01	30.567
862.19	30.201
862.37	29.668
862.55	31.029
862.73	30.906
862.91	31.158
863.09	31.643
863.27	31.567
863.44	31.663
863.62	31.400
863.80	31.581
863.98	31.912
864.16	30.667
864.34	32.998
864.52	31.025
864.69	31.523
864.87	32.103
865.05	32.290
865.23	32.368
865.41	31.193
865.59	31.622
865.76	32.205
865.94	30.681
866.12	30.491
866.30	31.896
866.48	31.507
866.66	31.721
866.83	31.213
867.01	31.459
867.19	31.714
867.37	31.047
867.55	30.312
867.73	31.213
867.90	31.454
868.08	30.322
868.26	30.624
868.44	29.791
868.62	30.928
868.79	30.591
868.97	31.068
869.15	29.215
869.33	30.303
869.51	30.634
869.69	30.055
869.86	29.527
870.04	30.180
870.22	29.352
870.40	30.925
870.57	29.957
870.75	29.886
870.93	31.047
871.11	30.079
871.29	28.793
871.46	28.950
871.64	28.651
871.82	29.011
872.00	28.306
872.18	29.219
872.35	30.148
872.53	29.979
872.71	28.457
872.89	29.080
873.06	28.370
873.24	30.433
873.42	30.722
873.60	29.493
873.77	29.265
873.95	30.295
874.13	30.589
874.31	31.282
874.49	31.416
874.66	31.747
874.84	30.796
875.02	31.972
875.20	31.725
875.37	32.183
875.55	32.218
875.73	32.599
875.91	34.190
876.08	33.265
876.26	34.428
876.44	33.406
876.61	32.632
876.79	34.530
876.97	33.942
877.15	34.940
877.32	34.219
877.50	34.295
877.68	34.415
877.86	35.205
878.03	34.364
878.21	35.077
878.39	34.885
878.56	35.590
878.74	34.760
878.92	34.305
879.10	34.941
879.27	36.294
879.45	36.196
879.63	35.755
879.80	36.982
879.98	35.018
880.16	36.230
880.34	36.199
880.51	36.116
880.69	36.811
880.87	36.551
881.04	37.215
881.22	37.586
881.40	36.741
881.57	36.998
881.75	37.088
881.93	37.378
882.10	37.643
882.28	36.785
882.46	37.707
882.63	38.059
882.81	38.112
882.99	37.653
883.16	39.128
883.34	39.621
883.52	40.227
883.69	40.017
883.87	39.152
884.05	40.204
884.22	39.541
884.40	41.155
884.58	41.314
884.75	39.201
884.93	41.280
885.11	39.376
885.28	40.036
885.46	40.439
885.64	40.750
885.81	39.843
885.99	40.419
886.17	40.580
886.34	40.879
886.52	40.927
886.70	38.813
886.87	39.123
887.05	40.228
887.22	39.405
887.40	40.251
887.58	39.540
887.75	40.263
887.93	40.679
888.11	39.377
888.28	38.954
888.46	37.700
888.63	38.037
888.81	38.682
888.99	38.015
889.16	37.316
889.34	38.325
889.51	38.739
889.69	36.904
889.87	37.282
890.04	36.124
890.22	35.578
890.39	36.377
890.57	35.725
890.75	36.281
890.92	36.548
891.10	36.114
891.27	35.254
891.45	34.572
891.63	34.369
891.80	33.848
891.98	35.408
892.15	33.647
892.33	33.835
892.51	34.560
892.68	34.180
892.86	33.317
893.03	32.826
893.21	33.211
893.38	32.355
893.56	32.262
893.74	32.203
893.91	31.545
894.09	30.318
894.26	31.518
894.44	30.452
894.61	29.763
894.79	29.046
894.96	29.202
895.14	30.750
895.32	29.086
895.49	28.856
895.67	28.103
895.84	28.311
896.02	29.535
896.19	27.674
896.37	27.846
896.54	27.679
896.72	28.625
896.89	27.968
897.07	27.602
897.25	27.002
897.42	27.342
897.60	25.818
897.77	26.247
897.95	26.510
898.12	25.471
898.30	26.292
898.47	25.295
898.65	25.524
898.82	24.402
899.00	24.642
899.17	24.931
899.35	25.245
899.52	24.983
899.70	24.197
899.87	24.138
900.05	24.844
900.22	23.265
900.40	25.723
900.57	23.960
900.75	24.299
900.92	23.939
901.10	22.688
901.27	24.466
901.45	23.140
901.62	23.738
901.80	22.575
901.97	22.682
902.15	23.501
902.32	22.552
902.50	21.608
902.67	21.279
902.85	21.952
903.02	22.385
903.20	21.501
903.37	20.453
903.54	21.173
903.72	20.951
903.89	20.223
904.07	21.095
904.24	20.006
904.42	19.723
904.59	19.992
904.77	19.532
904.94	19.528
905.12	18.899
905.29	17.732
905.47	18.521
905.64	17.714
905.81	18.588
905.99	17.542
906.16	17.388
906.34	17.459
906.51	17.488
906.69	16.755
906.86	17.131
907.03	15.723
907.21	15.461
907.38	15.863
907.56	16.143
907.73	15.164
907.91	15.332
908.08	15.151
908.25	14.319
908.43	14.514
908.60	14.258
908.78	15.249
908.95	13.479
909.13	13.737
909.30	12.913
909.47	11.947
909.65	12.762
909.82	13.443
910.00	13.099
910.17	11.976
910.34	11.589
910.52	12.275
910.69	12.148
910.87	11.528
911.04	11.711
911.21	11.693
911.39	10.728
911.56	11.594
911.73	11.191
911.91	11.741
912.08	11.073
912.26	12.031
912.43	11.327
912.60	11.838
912.78	11.622
912.95	10.080
913.13	10.214
913.30	11.381
913.47	10.455
913.65	10.576
913.82	10.901
913.99	10.040
914.17	10.582
914.34	10.517
914.51	9.804
914.69	9.773
914.86	10.350
915.03	9.339
915.21	9.292
915.38	10.529
915.56	11.193
915.73	8.904
915.90	9.103
916.08	10.468
916.25	10.063
916.42	9.295
916.60	10.512
916.77	10.175
916.94	9.045
917.12	9.475
917.29	8.528
917.46	10.842
917.64	9.639
917.81	8.504
917.98	10.465
918.16	9.468
918.33	9.988
918.50	9.349
918.67	8.679
918.85	10.824
919.02	9.172
919.19	8.242
919.37	9.286
919.54	8.130
919.71	9.640
919.89	8.641
920.06	8.005
920.23	9.078
920.41	9.211
920.58	8.136
920.75	8.650
920.92	9.667
921.10	7.966
921.27	7.673
921.44	8.422
921.62	8.379
921.79	7.875
921.96	7.853
922.13	8.465
922.31	7.819
922.48	9.122
922.65	7.653
922.82	8.496
923.00	7.521
923.17	8.528
923.34	7.173
923.52	7.562
923.69	7.446
923.86	7.633
924.03	6.547
924.21	6.416
924.38	6.652
924.55	7.106
924.72	6.928
924.90	7.667
925.07	8.101
925.24	7.478
925.41	7.106
925.59	7.152
925.76	7.365
925.93	8.229
926.10	7.977
926.28	7.695
926.45	7.854
926.62	6.319
926.79	8.207
926.96	7.599
927.14	7.822
927.31	8.302
927.48	8.627
927.65	7.538
927.83	8.605
928.00	7.963
928.17	8.872
928.34	8.141
928.51	8.234
928.69	8.308
928.86	9.331
929.03	9.986
929.20	10.304
929.37	8.645
929.55	9.194
929.72	10.114
929.89	10.304
930.06	10.597
930.23	10.390
930.41	11.699
930.58	12.482
930.75	11.807
930.92	11.995
931.09	9.890
931.27	10.336
931.44	12.034
931.61	10.800
931.78	11.879
931.95	11.349
932.12	12.087
932.30	11.473
932.47	11.218
932.64	12.698
932.81	12.254
932.98	12.223
933.16	12.522
933.33	12.966
933.50	13.000
933.67	13.465
933.84	13.626
934.01	11.389
934.18	13.788
934.36	13.913
934.53	13.740
934.70	13.203
934.87	13.580
935.04	12.245
935.21	13.871
935.38	14.273
935.56	14.742
935.73	14.666
935.90	14.747
936.07	13.318
936.24	14.841
936.41	15.633
936.58	14.945
936.76	14.394
936.93	14.524
937.10	15.722
937.27	15.056
937.44	16.034
937.61	15.721
937.78	14.914
937.95	15.336
938.13	16.667
938.30	15.662
938.47	14.751
938.64	14.693
938.81	15.769
938.98	15.823
939.15	17.260
939.32	16.178
939.49	17.850
939.66	18.337
939.84	17.740
940.01	16.687
940.18	18.140
940.35	15.903
940.52	16.927
940.69	18.066
940.86	17.522
941.03	17.617
941.20	18.094
941.37	16.846
941.54	16.038
941.71	18.219
941.89	16.899
942.06	16.591
942.23	18.488
942.40	17.365
942.57	19.152
942.74	18.811
942.91	20.826
943.08	16.761
943.25	16.234
943.42	16.857
943.59	18.098
943.76	18.375
943.93	18.419
944.10	18.335
944.27	18.067
944.44	18.351
944.61	18.697
944.79	19.611
944.96	19.298
945.13	21.261
945.30	18.125
945.47	19.091
945.64	19.271
945.81	20.397
945.98	19.229
946.15	21.348
946.32	18.963
946.49	21.825
946.66	19.438
946.83	21.195
947.00	19.294
947.17	21.378
947.34	21.254
947.51	19.289
947.68	21.781
947.85	21.140
948.02	22.222
948.19	21.128
948.36	21.203
948.53	20.146
948.70	21.053
948.87	20.897
949.04	21.324
949.21	20.090
949.38	22.406
949.55	23.765
949.72	20.249
949.89	24.116
950.06	22.989
950.23	22.674
950.40	22.090
950.57	23.787
950.74	23.226
950.91	24.025
951.08	25.960
951.25	23.628
951.42	23.739
951.59	24.834
951.76	23.221
951.93	24.622
952.10	25.626
952.27	26.705
952.44	28.018
952.61	28.255
952.77	26.884
952.94	29.914
953.11	32.179
953.28	30.906
953.45	30.030
953.62	30.938
953.79	29.144
953.96	30.303
954.13	32.704
954.30	31.094
954.47	31.676
954.64	33.670
954.81	34.759
954.98	33.584
955.15	32.928
955.32	36.293
955.49	31.376
955.65	33.444
955.82	32.903
955.99	35.282
956.16	34.268
956.33	34.951
956.50	37.788
956.67	35.897
956.84	37.861
957.01	38.371
957.18	37.483
957.35	38.151
957.52	37.483
957.68	37.434
957.85	40.263
958.02	38.676
958.19	38.486
958.36	40.333
958.53	39.246
958.70	40.300
958.87	38.036
959.04	40.919
959.21	40.126
959.37	40.902
959.54	42.376
959.71	39.081
959.88	38.370
960.05	40.692
960.22	38.692
960.39	38.526
960.56	42.592
960.72	41.475
960.89	42.369
961.06	40.466
961.23	40.045
961.40	42.239
961.57	40.061
961.74	40.397
961.90	43.257
962.07	40.112
962.24	39.825
962.41	39.293
962.58	38.655
962.75	37.287
962.92	39.920
963.08	41.404
963.25	38.961
963.42	40.726
963.59	43.752
963.76	40.170
963.93	44.630
964.10	42.493
964.26	44.581
964.43	38.474
964.60	41.918
964.77	44.196
964.94	40.702
965.10	42.602
965.27	40.516
965.44	42.353
965.61	40.917
965.78	40.157
965.95	41.437
966.11	41.990
966.28	42.217
966.45	40.621
966.62	41.162
966.79	42.407
966.95	43.196
967.12	43.305
967.29	41.414
967.46	41.885
967.63	40.017
967.79	39.339
967.96	39.249
968.13	39.473
968.30	42.550
968.47	40.553
968.63	42.105
968.80	39.253
968.97	40.489
969.14	40.154
969.31	42.458
969.47	41.463
969.64	41.723
969.81	41.928
969.98	43.912
970.14	43.839
970.31	42.538
970.48	44.604
970.65	47.701
970.81	43.094
970.98	44.254
971.15	45.015
971.32	44.921
971.48	45.436
971.65	45.393
971.82	47.631
971.99	44.846
972.15	48.700
972.32	44.777
972.49	49.517
972.66	49.556
972.82	47.286
972.99	49.119
973.16	50.514
973.33	50.782
973.49	50.255
973.66	47.686
973.83	49.285
974.00	50.484
974.16	51.357
974.33	50.051
974.50	48.761
974.67	48.272
974.83	54.305
975.00	54.484
975.17	53.046
975.33	52.837
975.50	55.255
975.67	53.568
975.84	52.570
976.00	53.745
976.17	57.841
976.34	54.701
976.50	54.399
976.67	56.900
976.84	55.014
977.00	54.501
977.17	54.452
977.34	53.225
977.50	55.513
977.67	56.913
977.84	56.676
978.01	55.099
978.17	58.510
978.34	57.422
978.51	55.941
978.67	58.452
978.84	55.332
979.01	57.492
979.17	59.745
979.34	55.208
979.51	53.912
979.67	60.157
979.84	60.449
980.01	60.650
980.17	62.124
980.34	58.459
980.51	56.083
980.67	57.917
980.84	57.683
981.01	58.151
981.17	63.710
981.34	64.120
981.50	61.879
981.67	62.020
981.84	58.496
982.00	63.677
982.17	62.120
982.34	61.219
982.50	60.282
982.67	61.108
982.84	61.216
983.00	57.895
983.17	63.411
983.33	60.323
983.50	61.942
983.67	57.725
983.83	54.293
984.00	56.121
984.17	58.912
984.33	57.048
984.50	61.691
984.66	61.959
984.83	62.090
985.00	60.745
985.16	54.249
985.33	61.317
985.49	59.257
985.66	61.781
985.83	57.436
985.99	60.722
986.16	61.245
986.32	60.796
986.49	62.251
986.66	52.614
986.82	59.344
986.99	55.018
987.15	56.452
987.32	62.246
987.49	61.297
987.65	57.996
987.82	58.643
987.98	54.859
988.15	62.412
988.31	60.515
988.48	61.727
988.65	57.752
988.81	56.474
988.98	58.853
989.14	59.262
989.31	59.366
989.47	62.150
989.64	59.716
989.80	61.436
989.97	61.811
990.14	63.775
990.30	52.264
990.47	57.318
990.63	62.222
990.80	58.631
990.96	62.061
991.13	60.877
991.29	62.218
991.46	61.054
991.62	60.952
991.79	52.729
991.95	60.508
992.12	57.095
992.29	62.217
992.45	59.008
992.62	53.634
992.78	57.543
992.95	59.466
993.11	58.484
993.28	53.750
993.44	46.620
993.61	55.983
993.77	55.858
993.94	51.066
994.10	57.452
994.27	58.534
994.43	57.840
994.60	54.857
994.76	57.155
994.93	58.123
995.09	61.629
995.26	61.708
995.42	53.763
995.59	57.559
995.75	54.182
995.92	64.528
996.08	65.038
996.25	55.652
996.41	57.615
996.58	59.946
996.74	54.905
996.91	55.750
997.07	57.301
997.23	62.216
997.40	52.471
997.56	55.120
997.73	53.218
997.89	62.187
998.06	63.259
998.22	51.152
998.39	52.102
998.55	62.006
998.72	56.356
998.88	62.411
999.05	55.864
999.21	53.427
999.37	65.339
999.54	63.483
999.70	57.729
999.87	62.963
1000.03	62.084
1000.20	56.025
1000.36	58.082
1000.52	57.466
1000.69	67.604
1000.85	63.255
1001.02	67.003
1001.18	55.788
1001.35	61.038
1001.51	68.384
1001.67	64.651
1001.84	64.042
1002.00	58.134
1002.17	64.520
1002.33	55.368
1002.50	58.995
1002.66	60.325
1002.82	58.272
1002.99	54.328
1003.15	55.876
1003.32	60.784
1003.48	66.108
1003.64	66.311
1003.81	67.845
1003.97	61.150
1004.14	52.073
1004.30	64.382
1004.46	68.014
1004.63	61.521
1004.79	58.998
1004.95	68.991
1005.12	65.912
1005.28	71.716
1005.45	60.613
1005.61	58.413
1005.77	60.963
1005.94	74.029
1006.10	67.758
1006.26	57.060
1006.43	71.300
1006.59	64.479
1006.76	69.035
1006.92	70.471
1007.08	74.501
1007.25	61.664
1007.41	60.969
1007.57	65.771
1007.74	76.227
1007.90	67.890
1008.06	62.345
1008.23	64.883
1008.39	86.687
1008.55	73.351
1008.72	64.907
1008.88	77.477
1009.04	76.241
1009.21	67.943
1009.37	62.288
1009.53	71.894
1009.70	75.296
1009.86	68.829
1010.02	66.107
1010.19	72.425
1010.35	76.741
1010.51	73.389
1010.68	71.537
1010.84	77.596
1011.00	68.837
1011.17	77.644
1011.33	74.316
1011.49	81.587
1011.66	75.806
1011.82	77.429
1011.98	72.540
1012.14	75.815
1012.31	85.562
1012.47	76.640
1012.63	77.561
1012.80	75.296
1012.96	71.405
1013.12	82.815
1013.29	71.303
1013.45	83.083
1013.61	70.481
1013.77	77.978
1013.94	78.435
1014.10	92.644
1014.26	77.819
1014.43	92.250
1014.59	82.387
1014.75	78.389
1014.91	85.118
1015.08	80.344
1015.24	80.908
1015.40	78.373
1015.56	82.836
1015.73	68.959
1015.89	75.368
1016.05	87.316
1016.21	71.831
1016.38	78.102
1016.54	75.472
1016.70	78.093
1016.86	87.619
1017.03	80.349
1017.19	73.022
1017.35	75.717
1017.51	71.462
1017.68	77.572
1017.84	81.707
1018.00	84.778
1018.16	79.735
1018.33	89.936
1018.49	89.121
1018.65	83.146
1018.81	86.104
1018.97	82.400
1019.14	79.747
1019.30	81.862
1019.46	93.287
1019.62	88.326
1019.79	68.100
1019.95	64.494
1020.11	81.839
1020.27	88.511
1020.43	70.664
1020.60	82.547
1020.76	92.715
1020.92	91.687
1021.08	73.034
1021.24	77.546
1021.41	98.538
1021.57	90.099
1021.73	76.471
1021.89	79.418
1022.05	82.487
1022.21	81.003
1022.38	67.972
1022.54	77.150
1022.70	89.867
1022.86	83.527
1023.02	69.608
1023.19	99.735
1023.35	91.270
1023.51	71.667
1023.67	64.921
1023.83	84.958
1023.99	92.988
1024.16	95.031
1024.32	70.516
1024.48	86.325
1024.64	80.303
1024.80	86.981
1024.96	90.349
1025.12	83.799
1025.29	63.185
1025.45	77.570
1025.61	67.151
1025.77	66.844
1025.93	79.898
1026.09	81.461
1026.26	68.285
1026.42	75.067
1026.58	87.013
1026.74	87.823
1026.90	76.667
1027.06	76.752
1027.22	82.875
1027.38	87.500
1027.55	90.041
1027.71	69.231
1027.87	83.196
1028.03	79.805
1028.19	63.603
1028.35	90.948
1028.51	74.088
1028.67	76.491
1028.83	74.060
1029.00	84.644
1029.16	63.370
1029.32	97.531
1029.48	82.353
1029.64	62.583
1029.80	68.772
1029.96	84.026
1030.12	70.068
1030.28	66.892
1030.44	72.364
1030.61	83.203
1030.77	60.714
1030.93	70.342
1031.09	86.975
1031.25	86.047
1031.41	86.058
1031.57	68.864
1031.73	75.221
1031.89	82.041
1032.05	55.020
1032.21	101.794
1032.37	76.543
1032.53	74.091
1032.69	76.132
1032.86	81.667
1033.02	81.068
1033.18	82.305
1033.34	64.063
1033.50	73.333
1033.66	69.118
1033.82	88.312
1033.98	50.638
1034.14	79.762
1034.30	77.434
1034.46	66.667
1034.62	40.936
1034.78	77.578
1034.94	48.249
1035.10	102.500
1035.26	60.776
1035.42	73.529
1035.58	90.244
1035.74	81.081
1035.90	69.388
1036.06	60.488
1036.22	81.731
1036.38	98.592
1036.54	69.626
1036.70	75.275
1036.86	87.500
1037.02	85.517
1037.18	82.796
1037.34	52.857
1037.50	94.086
1037.66	103.497
1037.82	63.285
1037.98	74.619
1038.14	112.281
1038.30	108.654
1038.46	106.757
1038.62	64.467
1038.78	104.687
1038.94	131.250
1039.10	70.370
1039.26	41.317
1039.42	90.741
1039.58	56.383
1039.74	117.568
1039.90	36.538
1040.06	69.608
>>>>>End Processed Spectral Data<<<<<
